"Time [ms]","Current(PhaseA) [A]","Current(PhaseB) [A]","Current(PhaseC) [A]"
0,0,0,0
0.2,0.0725147254928517,-0.981916787183302,0.909402061690451
0.4,0.189228889823536,-1.93881509692594,1.7495862071024
0.6,0.36066833252327,-2.84370698477239,2.48303865224912
0.8,0.656261958430252,-3.80083175689291,3.14456979846266
1,0.984614366379882,-4.77480852846188,3.790194162082
1.2,1.27365064123779,-5.71742521964766,4.44377457840987
1.4,1.62426592648697,-6.53648307057173,4.91221714408476
1.6,2.11159715376581,-7.43536226801051,5.32376511424471
1.8,2.71602925475752,-8.41032193207409,5.69429267731657
2,3.1630926241946,-9.28204547638292,6.11895285218832
2.2,3.70403259270407,-10.2249621521437,6.52092955943964
2.4,4.35874517236155,-11.0684999801678,6.70975480780628
2.6,5.08990619928603,-11.9360753788136,6.84616917952753
2.8,5.77874535759182,-12.7136288240637,6.93488346647187
3,6.35005545779049,-13.5211419942406,7.17108653645007
3.2,7.16954706611172,-14.3670519840972,7.1975049179855
3.4,8.00429560733108,-15.1530789470411,7.14878333971004
3.6,8.78000459888223,-15.7373599551878,6.95735535630553
3.8,9.45785252960905,-16.3023778135319,6.84452528392283
4,10.3788063324698,-17.1523261972773,6.77351986480751
4.2,11.3794843861857,-17.9259441874078,6.54645980122211
4.4,12.0781500683862,-18.2881826002293,6.21003253184316
4.6,12.775816914714,-18.4793597304402,5.7035428157262
4.8,13.6544864641579,-19.057883079347,5.40339661518911
5,14.7637888635194,-19.814664497005,5.05087563348554
5.2,15.4880426321428,-20.0700120340536,4.5819694019108
5.4,15.9917625991085,-19.9331574353548,3.94139483624632
5.6,16.7584012759272,-20.0680829322698,3.30968165634257
5.8,17.8350987218307,-20.6459053114542,2.81080658962346
6,18.6356659279832,-20.8433526321849,2.20768670420165
6.2,18.9613399996722,-20.4938353944445,1.53249539477225
6.4,19.507357848861,-20.2162813062643,0.708923457403333
6.6,20.5129328385143,-20.4609371945286,-0.0519956439857374
6.8,21.3218304764377,-20.6313020384545,-0.690528437983186
7,21.5852386841475,-20.1621276546101,-1.42311102953742
7.2,21.772935123655,-19.5424278907246,-2.23050723293039
7.4,22.5883379038712,-19.4604020346724,-3.12793586919879
7.59999999999999,23.3477199063552,-19.4994133559813,-3.8483065503739
7.79999999999999,23.592131919546,-19.0412212957708,-4.55091062377522
8,23.4679311032783,-18.1571872693277,-5.3107438339506
8.2,23.8785632344827,-17.7740415737776,-6.10452166070506
8.4,24.57167393608,-17.6506033966512,-6.9210705394288
8.6,24.7668652990832,-17.195482501372,-7.57138279771125
8.8,24.4286457550455,-16.2130129257948,-8.21563282925072
9,24.3509683028038,-15.5177388101538,-8.83322949264995
9.2,24.777987417435,-15.2367838567472,-9.54120356068775
9.4,24.9310363770074,-14.7186943784329,-10.2123419985745
9.6,24.4687023484686,-13.7955500899392,-10.6731522585294
9.8,23.917134860588,-12.7713838167292,-11.1457510438588
10,24.0297017129871,-12.3704419688642,-11.6592597441229
10.2,24.0619095961687,-11.7906226623723,-12.2712869337965
10.4,23.55550877703,-10.9365675846238,-12.6189411924063
10.6,22.7130545108339,-9.83395114258435,-12.8791033682496
10.8,22.4613555072491,-9.22382356660955,-13.2375319406395
11,22.3676398946078,-8.72575672551747,-13.6418831690903
11.2,21.8403492558203,-7.88096903000711,-13.9593802258132
11.4,20.9066888065022,-6.87929047441234,-14.0273983320899
11.6,20.3024410126709,-6.08082213526379,-14.2216188774071
11.8,20.0846647832944,-5.65766513107699,-14.4269996522174
12,19.610750218046,-4.954313458671,-14.656436759375
12.2,18.6790677192684,-4.0560259750155,-14.6230417442529
12.4,17.8854844266912,-3.26251245167922,-14.622971975012
12.6,17.4928294715945,-2.7834155802834,-14.7094138913111
12.8,17.0992577327683,-2.3563602017125,-14.7428975310558
13,16.2578652314042,-1.6194372016593,-14.6384280297449
13.2,15.3725195912398,-0.929387691132988,-14.4431319001069
13.4,14.9134222158434,-0.479324096288132,-14.4340981195553
13.6,14.4958075871201,-0.179172553666508,-14.3166350334536
13.8,13.785437639534,0.295211437560858,-14.0806490770949
14,12.8370381563059,0.893022809367303,-13.7300609656732
14.2,12.3070362164394,1.27359222194598,-13.5806284383854
14.4,11.8854911039494,1.50658586709434,-13.3920769710437
14.6,11.2355541911531,1.75892601593446,-12.9944802070875
14.8,10.4039970244042,2.19073255734477,-12.594729581749
15,9.76518053537924,2.51780589015662,-12.2829864255359
15.2,9.39760642778859,2.67309746206995,-12.0707038898585
15.4,8.79701944893026,2.80387861059762,-11.6008980595279
15.6,8.1136571054777,3.01020185957851,-11.1238589650562
15.8,7.47485471041061,3.29514996593084,-10.7700046763414
16,7.09166614269452,3.36899249109044,-10.460658633785
16.2,6.63248062072334,3.40084993574513,-10.0333305564685
16.4,6.00096417268295,3.46299550984526,-9.46395968252821
16.6,5.47693736791382,3.59293151604198,-9.0698688839558
16.8,5.09553725737236,3.61562207053429,-8.71115932790665
17,4.80222173550663,3.50029428764291,-8.30251602314954
17.2,4.27663691651229,3.46741080171938,-7.74404771823167
17.4,3.8134874474593,3.44596827392292,-7.25945572138222
17.6,3.49995224091118,3.40334472022578,-6.90329696113695
17.8,3.27081466730624,3.18622771457295,-6.45704238187919
18,2.94827364722624,3.02721108631858,-5.97548473354482
18.2,2.5536213135122,2.93534196091565,-5.48896327442785
18.4,2.32752778139201,2.79530275673489,-5.1228305381269
18.6,2.17094903336581,2.55186416477156,-4.72281319813736
18.8,1.97837520457326,2.26471601132928,-4.24309121590254
19,1.70091610294725,2.08154489509956,-3.78246099804681
19.2,1.53794681808938,1.87587800070219,-3.41382481879157
19.4,1.48093986917211,1.61603527014518,-3.09697513931729
19.6,1.39811503470786,1.27780237240704,-2.6759174071149
19.8,1.26135977714434,1.0200260157737,-2.28138579291804
20,1.17638779541605,0.786788435913494,-1.96317623132954
20.2,1.20537629763254,0.476643490285166,-1.68201978791771
20.4,1.20883013008862,0.116567353431659,-1.32539748352028
20.6,1.18056474153694,-0.200287073237749,-0.980277668299192
20.8,1.18059238103991,-0.458997198090569,-0.721595182949342
21,1.29354485480785,-0.789201641046551,-0.504343213761299
21.2,1.39912919666099,-1.1651272787288,-0.234001917932196
21.4,1.45191672713851,-1.50831414081946,0.0563974136809529
21.6,1.5260522874749,-1.76015167517155,0.234099387696653
21.8,1.7108616888571,-2.0758058886072,0.364944199750106
22,1.91999973743977,-2.45792037349663,0.53792063605686
22.2,2.03101583674832,-2.80264776513379,0.771631928385473
22.4,2.15825203253585,-3.03975872312036,0.881506690584507
22.6,2.37889298930851,-3.28913217652023,0.910239187211717
22.8,2.68362225709008,-3.65810164214584,0.97447938505576
23,2.87283251568563,-3.99532427446893,1.1224917587833
23.2,3.0211925503098,-4.22901616815508,1.20782361784528
23.4,3.25960607523394,-4.38597098730835,1.12636491207441
23.6,3.61917486895207,-4.69435629659392,1.07518142764185
23.8,3.91448321221213,-5.02633819100377,1.11185497879164
24,4.04981285633065,-5.22958580627045,1.1797729499398
24.2,4.28419361618807,-5.32050102666663,1.03630741047856
24.4,4.64722162809459,-5.49439123145165,0.84716960335706
24.6,5.01945465816235,-5.80538423088928,0.785929572726931
24.8,5.20274307882972,-5.99232643093423,0.789583352104513
25,5.40706280965538,-6.06644445181137,0.659381642155991
25.2,5.74962318954286,-6.09793201051026,0.348308820967405
25.4,6.10527549381732,-6.28576617530427,0.18049068148695
25.6,6.34817339836499,-6.47279726178306,0.124623863418075
25.8,6.47673106071436,-6.49264579382181,0.0159147331074454
26,6.77020356454803,-6.43482477743623,-0.335378787111796
26.2,7.10490844039564,-6.44540966968872,-0.659498770706924
26.4,7.38481584438858,-6.61010362027693,-0.774712224111645
26.6,7.4836757645867,-6.60371747353422,-0.879958291052476
26.7999999999999,7.65456826860984,-6.48486406757772,-1.16970420103212
26.9999999999999,7.99716440479378,-6.36932245655746,-1.62784194823632
27.1999999999999,8.22619811420464,-6.37680479615643,-1.8493933180482
27.3999999999999,8.33670957199717,-6.40907266636157,-1.92763690563561
27.5999999999999,8.38902381379999,-6.22809972506299,-2.160924088737
27.7999999999999,8.61942106700615,-6.01418202932455,-2.6052390376816
27.9999999999999,8.88022357182394,-5.88776190791441,-2.99246166390953
28.1999999999999,8.99112924075121,-5.90324637539893,-3.08788286535228
28.3999999999999,8.96748492529156,-5.71785094661836,-3.2496339786732
28.5999999999999,9.02370861347051,-5.41196407553555,-3.61174453793495
28.7999999999999,9.22868790075711,-5.16462924665774,-4.06405865409936
28.9999999999999,9.32066261815629,-5.0713492660494,-4.24931335210688
29.1999999999999,9.3205151400698,-4.99167559124775,-4.32883954882204
29.3999999999999,9.2317199424423,-4.6229676871228,-4.6087522553195
29.5999999999999,9.25284575228897,-4.26187506500394,-4.99097068728503
29.7999999999999,9.35122767387883,-4.05532521737273,-5.29590245650609
29.9999999999999,9.33412092954758,-3.99589962814025,-5.33822130140733
30.1999999999999,9.19783346432104,-3.69292210739225,-5.50491135692879
30.3999999999999,9.01898711941491,-3.21593792438609,-5.80304919502882
30.5999999999999,9.02645495192913,-2.91810081319029,-6.10835413873884
30.7999999999999,9.01808354166672,-2.80207575819304,-6.21600778347369
30.9999999999999,8.86544736457649,-2.63375136528593,-6.23169599929056
31.1999999999999,8.58583878153849,-2.1468609933185,-6.43897778821999
31.3999999999999,8.41687906365497,-1.74024267258682,-6.67663639106815
31.5999999999999,8.41293104692828,-1.568032622018,-6.84489842491028
31.7999999999999,8.22648010720988,-1.45341014503531,-6.77306996217457
31.9999999999999,7.9534310794977,-1.09925943455652,-6.85417164494118
32.1999999999999,7.63783568009343,-0.605916654975843,-7.03191902511759
32.3999999999999,7.54255795524528,-0.371485474061428,-7.17107248118386
32.5999999999999,7.42229071182935,-0.270191666599258,-7.15209904523009
32.7999999999999,7.08075958526709,-0.0661594702187563,-7.01460011504833
32.9999999999999,6.73102680741172,0.376365239712685,-7.1073920471244
33.1999999999999,6.4974607857694,0.704933920701852,-7.20239470647125
33.3999999999999,6.3975671902312,0.793648942121467,-7.19121613235267
33.5999999999999,6.08116534830678,0.911203332181559,-6.99236868048834
33.7999999999999,5.6762733255733,1.21065869054537,-6.88693201611867
33.9999999999999,5.37556217906148,1.58066288872849,-6.95622506778997
34.1999999999999,5.22283153088659,1.69366888895916,-6.91650041984575
34.3999999999999,5.00494885749376,1.73769071544201,-6.74263957293577
34.5999999999999,4.56983578191957,1.91342175842601,-6.48325754034558
34.7999999999999,4.22181121336105,2.21358518020486,-6.43539639356591
34.9999999999999,4.01232805192889,2.3828744025702,-6.39520245449909
35.1999999999999,3.85493746925338,2.35863870266937,-6.21357617192275
35.3999999999999,3.47207638896181,2.43332644856044,-5.90540283752226
35.5999999999999,3.06701891602325,2.62091979944729,-5.68793871547054
35.7999999999999,2.84933276251333,2.80205586636356,-5.65138862887688
35.9999999999999,2.6903191433133,2.76459398560529,-5.4549131289186
36.1999999999999,2.45797890882069,2.71444721414528,-5.17242612296597
36.3999999999999,2.05657374650298,2.80802114393162,-4.8645948904346
36.5999999999999,1.81390359228505,2.93046096217332,-4.74436455445837
36.7999999999999,1.69678601173274,2.90743029677564,-4.60421630850839
36.9999999999999,1.53357459459754,2.76296186067437,-4.29653645527191
37.1999999999999,1.20653906129977,2.75002499512595,-3.95656405642572
37.3999999999999,0.928287995354652,2.79841596794296,-3.72670396329761
37.5999999999999,0.842436450875814,2.7756322523717,-3.61806870324751
37.7999999999999,0.74695787958742,2.58894470868735,-3.33590258827477
37.9999999999999,0.533326386337351,2.45945475180979,-2.99278113814714
38.1999999999999,0.272784054241216,2.45176311934906,-2.72454717359027
38.3999999999999,0.179008000803524,2.39036024224571,-2.56936824304923
38.5999999999999,0.152039456452734,2.21481436678655,-2.36685382323929
38.7999999999999,0.0357619932903815,1.9947320797397,-2.03049407303009
38.9999999999999,-0.163254235851404,1.90914752773982,-1.74589329188842
39.1999999999999,-0.257788215958822,1.83963658413418,-1.58184836817536
39.3999999999999,-0.22171679988316,1.64785830585146,-1.4261415059683
39.5999999999999,-0.25362720643259,1.38546253030949,-1.1318353238769
39.7999999999999,-0.37331954609548,1.21865001920712,-0.84533047311164
39.9999999999999,-0.441892548195015,1.12901995607182,-0.687127407876801
40.1999999999999,-0.372558140109078,0.94004636052926,-0.567488220420182
40.3999999999999,-0.315240608299831,0.663300814511085,-0.348060206211254
40.5999999999999,-0.352753109364854,0.434054699700078,-0.0813015903352241
40.7999999999999,-0.39046267427605,0.314340763586827,0.0761219106892227
40.9999999999999,-0.299787216046594,0.148147351303507,0.151639864743088
41.1999999999999,-0.156163808636223,-0.131903181178057,0.28806698981428
41.3999999999999,-0.118350140290148,-0.402430497639058,0.520780637929205
41.5999999999999,-0.119990641913918,-0.548724268416525,0.668714910330442
41.7999999999999,-0.0109129742048324,-0.686331507537872,0.697244481742705
41.9999999999999,0.190697809413025,-0.948004661781565,0.75730685236854
42.1999999999999,0.307539100771128,-1.23241784876001,0.924878747988887
42.3999999999999,0.345736796762623,-1.40072461992184,1.05498782315922
42.5999999999999,0.452550762737962,-1.5015147481158,1.04896398537784
42.7999999999999,0.686938208739095,-1.70993641716345,1.02299820842436
42.9999999999999,0.884232397917807,-1.98595351081723,1.10172111289942
43.1999999999999,0.960026453747446,-2.18027117758531,1.22024472383786
43.3999999999998,1.0630893864353,-2.25034438945287,1.18725500301757
43.5999999999998,1.29774311264702,-2.38205331168754,1.08431019904052
43.7999999999998,1.5697747162836,-2.63960001336442,1.06982529708081
43.9999999999998,1.69324963935937,-2.8383792746668,1.14512963530743
44.1999999999998,1.7837777639575,-2.89696795051014,1.11319018655264
44.3999999999998,1.99234239722208,-2.93474116358622,0.942398766364133
44.5999999999998,2.29729057752387,-3.12809758213485,0.830807004610982
44.7999999999998,2.48980781828931,-3.32629808991273,0.836490271623422
44.9999999999998,2.55514375008489,-3.38274494063984,0.827601190554945
45.1999999999998,2.7238830431545,-3.35021819926425,0.626335156109746
45.3999999999998,3.01301357666139,-3.43463731554164,0.421623738880252
45.5999999999998,3.2675194555912,-3.6262201443577,0.358700688766496
45.7999999999998,3.33473501365176,-3.67595474063339,0.341219726981628
45.9999999999998,3.42792703972186,-3.59978163245358,0.171854592731725
46.1999999999998,3.6763612463891,-3.55816233769567,-0.118198908693427
46.3999999999998,3.95011627874007,-3.68465003671053,-0.265466242029536
46.5999999999998,4.06766701946667,-3.75432638948513,-0.313340629981536
46.7999999999998,4.07548814766571,-3.64196597909617,-0.433522168569539
46.9999999999998,4.25399301676409,-3.50586731178739,-0.748125704976697
47.1999999999998,4.51488677354521,-3.51425749950591,-1.0006292740393
47.3999999999998,4.67167034363565,-3.59883733905612,-1.07283300457953
47.5999999999998,4.64437060295494,-3.48109828589007,-1.16327231706487
47.7999999999998,4.69674759741514,-3.27214726208919,-1.42460033532595
47.9999999999998,4.92024042515814,-3.15884312329752,-1.76139730186062
48.1999999999998,5.08783053357092,-3.19853405882438,-1.88929647474654
48.3999999999998,5.08896368607794,-3.13591153311464,-1.9530521529633
48.5999999999998,5.01835776742534,-2.8748692527479,-2.14348851467744
48.7999999999998,5.14801116922371,-2.6652206013245,-2.48279056789922
48.9999999999998,5.32242890750641,-2.61445754884207,-2.70797135866434
49.1999999999998,5.33319725125598,-2.5961129506409,-2.73708430061508
49.3999999999998,5.19684190905508,-2.34846786942742,-2.84837403962766
49.5999999999998,5.17718827605353,-2.05044104104621,-3.12674723500733
49.7999999999998,5.32166248665931,-1.90766565623469,-3.41399683042462
49.9999999999998,5.34038707054288,-1.87491654588079,-3.46547052466209
50.1999999999998,5.19859848660521,-1.70760775943347,-3.49099072717173
50.3999999999998,5.04144900222573,-1.34973495279339,-3.69171404943233
50.5999999999998,5.08333112107055,-1.11832309246997,-3.96500802860058
50.7999999999998,5.13773375096113,-1.04263452818736,-4.09509922277377
50.9999999999998,4.98292798991216,-0.940221667486891,-4.04270632242527
51.1999999999998,4.74683526222805,-0.618069256042145,-4.12876600618591
51.3999999999998,4.64707978249989,-0.289093472202044,-4.35798631029784
51.5999999999998,4.69630595390008,-0.171264152840217,-4.52504180105986
51.7999999999998,4.57427533025318,-0.0991470187394919,-4.47512831151368
51.9999999999998,4.30927482628591,0.127725095653159,-4.43699992193907
52.1999999999998,4.09622208915787,0.495234323997612,-4.59145641315548
52.3999999999998,4.051258417086,0.687558591212939,-4.73881700829894
52.5999999999998,4.00659387862072,0.729333143606489,-4.73592702222721
52.7999999999998,3.73193072776825,0.864445819461354,-4.59637654722961
52.9999999999998,3.44456542150622,1.17686625089271,-4.62143167239893
53.1999999999998,3.30328011856836,1.44651450515282,-4.74979462372118
53.3999999999998,3.26594375281793,1.48468367792654,-4.75062743074447
53.5999999999998,3.04587466728301,1.54358716770555,-4.58946183498856
53.7999999999998,2.7093578712368,1.76241636430045,-4.47177423553725
53.9999999999998,2.49579955302846,2.04516013138714,-4.5409596844156
54.1999999999998,2.40994233597957,2.13235980134262,-4.54230213732219
54.3999999999998,2.27604186558169,2.10969662105208,-4.38573848663376
54.5999999999998,1.93507321320248,2.23376443964667,-4.16883765284915
54.7999999999998,1.65111852385745,2.46780537741917,-4.11892390127662
54.9999999999998,1.53488122196516,2.60627528268959,-4.14115650465475
55.1999999999998,1.44212945266346,2.54735098621958,-3.98948043888304
55.3999999999998,1.16393640437982,2.56887744018402,-3.73281384456384
55.5999999999998,0.833637664472113,2.73035040916127,-3.56398807363338
55.7999999999998,0.682717844576447,2.86907915856814,-3.55179700314458
55.9999999999998,0.609224161400016,2.82779068160609,-3.43701484300611
56.1999999999998,0.433369367511001,2.73579523770567,-3.16916460521667
56.3999999999998,0.115896632499543,2.80704300859612,-2.92293964109566
56.5999999999998,-0.0885425017065888,2.91549374602716,-2.82695124432058
56.7999999999998,-0.136721985112324,2.89418076380004,-2.75745877868771
56.9999999999998,-0.236813808162414,2.74029993049847,-2.50348612233606
57.1999999999998,-0.486044277215019,2.69667715333988,-2.21063287612486
57.3999999999998,-0.722241862768964,2.76463876054085,-2.04239689777188
57.5999999999998,-0.77019357400098,2.73894376968427,-1.96875019568329
57.7999999999998,-0.798708570270843,2.56800005000614,-1.7692914797353
57.9999999999998,-0.961012500415143,2.41424159952404,-1.4532290991089
58.1999999999998,-1.17918898685903,2.41306260393251,-1.23387361707348
58.3999999999998,-1.25129189014097,2.39315003485892,-1.14185814471795
58.5999999999998,-1.22081139795346,2.22122425337045,-1.00041285541699
58.7999999999998,-1.29100919616368,1.99873537155739,-0.707726175393706
58.9999999999998,-1.4622692949478,1.91156617138915,-0.449296876441355
59.1999999999998,-1.54918003183379,1.88650655925052,-0.337326527416734
59.3999999999998,-1.48059183665197,1.72682751256786,-0.246235675915887
59.5999999999998,-1.45536001695894,1.47319701348542,-0.0178369965264844
59.7999999999997,-1.55772510523118,1.30087508879897,0.256850016432203
59.9999999999997,-1.63293224190025,1.24400493644828,0.388927305451969
60.1999999999997,-1.55887141838862,1.11896219100258,0.439909227386045
60.3999999999997,-1.44554884733347,0.851693633873367,0.593855213460098
60.5999999999997,-1.45748080083256,0.614657996923649,0.84282280390891
60.7999999999997,-1.51616460900256,0.518726320343597,0.997438288658959
60.9999999999997,-1.43566248326835,0.418240376023566,1.01742210724478
61.1999999999997,-1.26128107805387,0.17507926618783,1.08620181186604
61.3999999999997,-1.18480269581779,-0.0998673317272188,1.28467002754501
61.5999999999997,-1.20343560231521,-0.241529912181732,1.44496551449694
61.7999999999997,-1.13395179550035,-0.323013465990371,1.45696526149072
