"Time [ms]","Current(PhaseA) [A]","Current(PhaseB) [A]","Current(PhaseC) [A]"
0,0,0,0
0.2,0.0725291415495863,-0.981948827089801,0.909419685540215
0.4,0.189207318587831,-1.93889366980255,1.74968635121472
0.6,0.360728076073349,-2.84378906377678,2.48306098770344
0.8,0.656663168338657,-3.80127696815095,3.14461379981229
1,0.985379192326577,-4.7756990656691,3.79031987334253
1.2,1.27437810967341,-5.71801238277722,4.44363427310381
1.4,1.62473206452381,-6.53682544349448,4.91209337897067
1.6,2.11254918005209,-7.43608358333637,5.32353440328429
1.8,2.71729020880119,-8.41135612454345,5.69406591574226
2,3.1643731379908,-9.28267429803733,6.11830116004652
2.2,3.70556424827938,-10.2262815853776,6.52071733709826
2.4,4.36051641164419,-11.069688249125,6.70917183748086
2.6,5.09209875511954,-11.9376589709906,6.84556021587108
2.8,5.7811706441974,-12.7152635046898,6.93409286049244
3,6.35246037603117,-13.5229411607026,7.17048078467146
3.2,7.17226765882205,-14.368289843238,7.19602218441596
3.4,8.00821979392097,-15.1554793746272,7.14725958070623
3.6,8.7837664906937,-15.739854750613,6.95608825991934
3.8,9.46208294972605,-16.3054389418299,6.8433559921039
4,10.3831806338088,-17.1551337154215,6.77195308161269
4.2,11.3847584379908,-17.9282368103748,6.54347837238401
4.4,12.0846169095965,-18.2922086873221,6.20759177772564
4.6,12.7827377341371,-18.4840313871866,5.70129365304954
4.8,13.6602608124702,-19.0620865413206,5.4018257288504
5,14.7719122093939,-19.8197591131513,5.04784690375739
5.2,15.4955965327608,-20.0753137874133,4.5797172546525
5.4,16.0007108268152,-19.9387784445247,3.93806761770947
5.6,16.7714878243279,-20.0768365716217,3.30534874729371
5.8,17.8454993308064,-20.6511994536844,2.80570012287802
6,18.6468160647767,-20.849165460494,2.20234939571726
6.2,18.9714992387148,-20.5007000978029,1.52920085908809
6.4,19.5188664746275,-20.2224877572034,0.703621282575856
6.6,20.5268999630211,-20.4700364138576,-0.0568635491635305
6.8,21.3357214480136,-20.6393041880064,-0.696417260007205
7,21.5989912352394,-20.1705414955272,-1.4284497397122
7.2,21.7906681705838,-19.5517854756287,-2.23888269495509
7.4,22.6048827679627,-19.4695802191281,-3.13530254883457
7.59999999999999,23.3636061535409,-19.5076670658112,-3.85593908772969
7.79999999999999,23.6108661780792,-19.0528580962056,-4.55800808187363
8,23.4866421554277,-18.1681867159398,-5.31845543948787
8.2,23.8964939459497,-17.784935163395,-6.11155878255463
8.4,24.5903910529047,-17.662546347897,-6.92784470500769
8.6,24.785338614533,-17.2081137391551,-7.57722487537789
8.8,24.4494273308241,-16.2245454253391,-8.22488190548493
9,24.3707069113342,-15.5295461475732,-8.84116076376101
9.2,24.798018306179,-15.2497826920184,-9.54823561416062
9.4,24.9525244676492,-14.7309707923585,-10.2215536752907
9.6,24.4903150278102,-13.8095339964739,-10.6807810313363
9.8,23.9351384127132,-12.7816287131025,-11.1535096996107
10,24.0507087027184,-12.3837726549741,-11.6669360477443
10.2,24.0830474715879,-11.8040436709573,-12.2790038006306
10.4,23.5767551635124,-10.9502134207855,-12.6265417427269
10.6,22.7329789190861,-9.84402417239239,-12.8889547466937
10.8,22.481411692853,-9.23631854172996,-13.245093151123
11,22.3879579014654,-8.73849558097225,-13.6494623204931
11.2,21.8609990530645,-7.8950136999372,-13.9659853531273
11.4,20.9247810439394,-6.89026435331607,-14.0345166906234
11.6,20.3213521637536,-6.09238497979198,-14.2289671839616
11.8,20.1026939046212,-5.66845684247344,-14.4342370621477
12,19.6282777182284,-4.96595114758027,-14.6623265706481
12.2,18.6976747482215,-4.06713898038819,-14.6305357678333
12.4,17.9026171429933,-3.27214814438544,-14.6304689986079
12.6,17.5122156092866,-2.79177201432611,-14.7204435949605
12.8,17.1153833366045,-2.36613696591082,-14.7492463706937
13,16.2727946521738,-1.62825323054287,-14.6445414216309
13.2,15.3870943721581,-0.938748542667423,-14.4483458294907
13.4,14.928028881254,-0.488668392506969,-14.439360488747
13.6,14.5104465409792,-0.188816620655928,-14.3216299203232
13.8,13.8007503867773,0.284463333680424,-14.0852137204577
14,12.8524459398899,0.882773594859597,-13.7352195347495
14.2,12.3213498981516,1.26347832095795,-13.5848282191096
14.4,11.9010220915104,1.49595627469616,-13.3969783662065
14.6,11.2534163242676,1.74788660457903,-13.0013029288466
14.8,10.4184602553534,2.17991686901999,-12.5983771243734
15,9.77874876686241,2.50882252882399,-12.2875712956864
15.2,9.41139912975814,2.66469402799425,-12.0760931577524
15.4,8.81105180703413,2.79413958551905,-11.6051913925532
15.6,8.1276966225331,2.99984760016814,-11.1275442227012
15.8,7.48834397759353,3.28591966204966,-10.7742636396432
16,7.10523900429399,3.36010038217857,-10.4653393864726
16.2,6.64586943213932,3.39213982831316,-10.0380092604525
16.4,6.01380179753524,3.45364873762336,-9.4674505351586
16.6,5.49012321834701,3.58371265003737,-9.07383586838438
16.8,5.10816257160452,3.60647024804484,-8.71463281964936
17,4.81458604811011,3.4908684076972,-8.30545445580731
17.2,4.27746449889951,3.44358062539585,-7.72104512429536
17.4,3.82644699607386,3.43810533292106,-7.26455232899492
17.6,3.5125216523258,3.39584841913422,-6.90837007146002
17.8,3.28307751980144,3.17892715152853,-6.46200467132997
18,2.96052112737427,3.01919498853221,-5.97971611590648
18.2,2.56583465161428,2.92694786593017,-5.49278251754445
18.4,2.33929409867013,2.78735763059308,-5.1266517292632
18.6,2.18303873651565,2.54429539693163,-4.72733413344729
18.8,1.99053750241774,2.25740532200068,-4.24794282441842
19,1.71290847159022,2.07388921031368,-3.7867976819039
19.2,1.54979865039916,1.86851326045052,-3.41831191084968
19.4,1.4924339504819,1.60905007491974,-3.10148402540164
19.6,1.40977002250283,1.27079569862367,-2.6805657211265
19.8,1.27302336433749,1.01284717110896,-2.28587053544645
20,1.18793453880077,0.779735516603426,-1.9676700554042
20.2,1.21703351382981,0.46977112572739,-1.6868046395572
20.4,1.22012266472764,0.110288389358004,-1.33041105408564
20.6,1.1917550633533,-0.206816696692696,-0.984938366660604
20.8,1.19208587325247,-0.465512364005459,-0.726573509247008
21,1.30466260631899,-0.795505669555388,-0.509156936763606
21.2,1.41030624919556,-1.1714869550852,-0.238819294110362
21.4,1.46295711559617,-1.51456497433521,0.0516078587390354
21.6,1.53721305299699,-1.76621065206008,0.228997599063087
21.8,1.72226886455964,-2.08199911352029,0.359730248960642
22,1.93126585249861,-2.46354659975361,0.532280747254997
22.2,2.04218525210026,-2.80841031169055,0.766225059590292
22.4,2.1698173636226,-3.04544927942063,0.875631915798026
22.6,2.39034947741719,-3.29520826455347,0.90485878713628
22.8,2.69480086660155,-3.66398606585642,0.969185199254871
23,2.88368031133096,-4.0009987253687,1.11731841403774
23.2,3.03225377244295,-4.23435146619863,1.20209769375569
23.4,3.27091017579097,-4.39119708780516,1.12028691201419
23.6,3.63049044084424,-4.69954340294787,1.06905296210363
23.8,3.92543101675114,-5.03180313569613,1.10637211894498
24,4.06081633661063,-5.23487253425271,1.17405619764208
24.2,4.29576238231706,-5.32581788976264,1.03005550744558
24.4,4.659588739415,-5.50014003689946,0.840551297484454
24.6,5.03096066377709,-5.810467431863,0.779506768085909
24.8,5.214281232617,-5.99773743794426,0.783456205327258
25,5.4187128305966,-6.07188673947116,0.653173908874562
25.2,5.76189701056002,-6.10345777602783,0.341560765467809
25.4,6.11656043537003,-6.29065468224626,0.174094246876225
25.6,6.36031804943381,-6.47839725325254,0.118079203818731
25.8,6.48839022461144,-6.49779534720497,0.00940512259352833
26,6.78204030678883,-6.44027181355699,-0.341768493231843
26.2,7.11667640876426,-6.4507060036893,-0.665970405074966
26.4,7.39701015183688,-6.61594268571794,-0.781067466118945
26.6,7.4951885818574,-6.60897053642574,-0.886218045431662
26.7999999999999,7.66642705845294,-6.49009250378341,-1.17633455466954
26.9999999999999,8.00875998381556,-6.37458488893183,-1.63417509488373
27.1999999999999,8.23808487438255,-6.38245332118023,-1.85563155320232
27.3999999999999,8.34820978701654,-6.41473494881747,-1.93347483819906
27.5999999999999,8.40139356211675,-6.23346463122304,-2.16792893089371
27.7999999999999,8.63190773638508,-6.01967445857449,-2.61223327781059
27.9999999999999,8.8928147402599,-5.89337926902211,-2.99943547123779
28.1999999999999,9.00330515735466,-5.90868485201761,-3.09462030533704
28.3999999999999,8.97984284661557,-5.72391718288772,-3.25592566372785
28.5999999999999,9.03635202492647,-5.41840724655904,-3.61794477836743
28.7999999999999,9.24085294027395,-5.17038198593042,-4.07047095434353
28.9999999999999,9.33281328868156,-5.07683793225092,-4.25597535643064
29.1999999999999,9.33350043379158,-4.99806892693044,-4.33543150686114
29.3999999999999,9.24484270206789,-4.62947233204078,-4.61537037002711
29.5999999999999,9.26520551259897,-4.26828606248668,-4.99691945011229
29.7999999999999,9.36329123152527,-4.0611206966877,-5.30217053483758
29.9999999999999,9.34691315497916,-4.00256175977956,-5.34435139519961
30.1999999999999,9.21046917049295,-3.69941172047762,-5.51105745001534
30.3999999999999,9.03124988760472,-3.22238775576471,-5.80886213184001
30.5999999999999,9.03896501358483,-2.92395782552107,-6.11500718806376
30.7999999999999,9.03099082537323,-2.80912557577559,-6.22186524959763
30.9999999999999,8.87859783666022,-2.64086760392943,-6.2377302327308
31.1999999999999,8.59839999177635,-2.15391572342527,-6.44448426835108
31.3999999999999,8.42846242673924,-1.74577357201091,-6.68268885472834
31.5999999999999,8.42443557570488,-1.57389380459391,-6.85054177111097
31.7999999999999,8.23844086554104,-1.4598385784975,-6.77860228704354
31.9999999999999,7.96538442370389,-1.10617404227729,-6.8592103814266
32.1999999999999,7.64960736837848,-0.612646647582805,-7.03696072079568
32.3999999999999,7.55417983603854,-0.377827476695401,-7.17635235934314
32.5999999999999,7.43466150718019,-0.2764757905619,-7.15818571661829
32.7999999999999,7.09286699444748,-0.0727882298696148,-7.02007876457787
32.9999999999999,6.74312955396517,0.369578296360251,-7.11270785032542
33.1999999999999,6.50815759563123,0.698629586851594,-7.20678718248283
33.3999999999999,6.40900485254716,0.787243689683459,-7.19624854223061
33.5999999999999,6.09299828074282,0.904162122677877,-6.9971604034207
33.7999999999999,5.68862584773042,1.20313876057993,-6.89176460831035
33.9999999999999,5.38637875151216,1.57440099820925,-6.96077974972141
34.1999999999999,5.23444574533491,1.68703189975472,-6.92147764508963
34.3999999999999,5.01778512465593,1.7305453083013,-6.74833043295723
34.5999999999999,4.58207300167676,1.90623074731858,-6.48830374899535
34.7999999999999,4.23274405256987,2.20711565863954,-6.43985971120941
34.9999999999999,4.02310589816829,2.37701518801824,-6.40012108618653
35.1999999999999,3.86553079199868,2.3526903373165,-6.21822112931518
35.3999999999999,3.48303639051814,2.42684985494481,-5.90988624546295
35.5999999999999,3.07760157497612,2.61461856887318,-5.6922201438493
35.7999999999999,2.86014128649395,2.79552487568981,-5.65566616218376
35.9999999999999,2.70047673773131,2.75865840778717,-5.45913514551848
36.1999999999999,2.46874028364869,2.70844686576638,-5.17718714941507
36.3999999999999,2.06666116530699,2.80196129912729,-4.86862246443428
36.5999999999999,1.82383426309706,2.92413892411817,-4.74797318721523
36.7999999999999,1.70660103207539,2.90122369104713,-4.60782472312252
36.9999999999999,1.54392298825891,2.75655058943094,-4.30047357768986
37.1999999999999,1.21657262241613,2.74399524259348,-3.96056786500961
37.3999999999999,0.93816428848513,2.79271935716945,-3.73088364565458
37.5999999999999,0.851954377209227,2.77041735334164,-3.62237173055086
37.7999999999999,0.756625688053491,2.58362221102376,-3.34024789907725
37.9999999999999,0.543044049894769,2.45403077530874,-2.99707482520351
38.1999999999999,0.282092752967585,2.44576477795082,-2.72785753091841
38.3999999999999,0.188119566004315,2.3848096124627,-2.57292917846702
38.5999999999999,0.161429196308748,2.20943805208276,-2.37086724839151
38.7999999999999,0.0454315467747403,1.98957835484492,-2.03500990161966
38.9999999999999,-0.153970069283933,1.90361729272289,-1.74964722343896
39.1999999999999,-0.248471259499085,1.83423063914073,-1.58575937964165
39.3999999999999,-0.212650631644985,1.64315279645534,-1.43050216481036
39.5999999999999,-0.244567888635196,1.38061068847603,-1.13604279984084
39.7999999999999,-0.364374922572869,1.21357956517355,-0.849204642600684
39.9999999999999,-0.432957660582656,1.12404175320765,-0.691084092624998
40.1999999999999,-0.363255474701944,0.934819858722322,-0.571564384020378
40.3999999999999,-0.306109571366924,0.65849510699221,-0.352385535625286
40.5999999999999,-0.34398287575838,0.429365883913661,-0.0853830081552807
40.7999999999999,-0.381652710938224,0.309851260233554,0.0718014507046702
40.9999999999999,-0.29111477771364,0.143247355100877,0.147867422612763
41.1999999999999,-0.147653349750897,-0.136396993112838,0.284050342863735
41.3999999999999,-0.109903317132802,-0.407210948819473,0.517114265952275
41.5999999999999,-0.111342386168706,-0.553199429529986,0.664541815698692
41.7999999999999,-0.00212688494737028,-0.690836307100807,0.692963192048177
41.9999999999999,0.199326654969219,-0.951952500672748,0.752625845703529
42.1999999999999,0.316072642250805,-1.23636940199108,0.920296759740276
42.3999999999999,0.354585563320264,-1.40498583378827,1.050400270468
42.5999999999999,0.46125186733175,-1.50593599854178,1.04468413121003
42.7999999999999,0.695415630663923,-1.71427484409038,1.01885921342646
42.9999999999999,0.892807427078795,-1.98991565984955,1.09710823277075
43.1999999999999,0.968766562531727,-2.18439808272412,1.2156315201924
43.3999999999998,1.07181810858272,-2.25441611138022,1.1825980027975
43.5999999999998,1.30646223284556,-2.38580436572385,1.07934213287829
43.7999999999998,1.5781251294583,-2.64338775086084,1.06526262140254
43.9999999999998,1.70187165684051,-2.842773351718,1.1409016948775
44.1999999999998,1.79226689693942,-2.90066816025975,1.10840126332033
44.3999999999998,2.0007919444537,-2.93851545254165,0.93772350808795
44.5999999999998,2.30609957775429,-3.13200155354794,0.825901975793649
44.7999999999998,2.49863451744784,-3.33045612219697,0.831821604749124
44.9999999999998,2.56364135157034,-3.38663830157185,0.822996950001507
45.1999999999998,2.73252215201934,-3.35394974299693,0.62142759097759
45.3999999999998,3.02124285888376,-3.43794755843992,0.416704699556156
45.5999999999998,3.27633626383577,-3.63005161086799,0.353715347032216
45.7999999999998,3.34333287005067,-3.67942360735656,0.336090737305897
45.9999999999998,3.43692628157865,-3.60361394647711,0.166687664898458
46.1999999999998,3.68555736750733,-3.56221094982009,-0.123346417687237
46.3999999999998,3.95924887787692,-3.68885382687674,-0.270395051000175
46.5999999999998,4.07623185683474,-3.75778758189319,-0.318444274941547
46.7999999999998,4.08385425369864,-3.64534941017527,-0.438504843523377
46.9999999999998,4.2623306380358,-3.50914523155162,-0.753185406484177
47.1999999999998,4.52364534844668,-3.51811406440518,-1.0055312840415
47.3999999999998,4.68055014604605,-3.60273414181819,-1.07781600422786
47.5999999999998,4.65307362977556,-3.48477671401168,-1.16829691576388
47.7999999999998,4.70537385669618,-3.27565287956549,-1.42972097713069
47.9999999999998,4.92869338153565,-3.16217475031789,-1.76651863121776
48.1999999999998,5.0967935200741,-3.20212783836432,-1.89466568170978
48.3999999999998,5.09797644646382,-3.1398395570181,-1.95813688944571
48.5999999999998,5.02688577989293,-2.87853332829871,-2.14835245159422
48.7999999999998,5.15626860523916,-2.66877377754032,-2.48749482769884
48.9999999999998,5.33144705893712,-2.6178525564324,-2.71359450250472
49.1999999999998,5.34181144716504,-2.59993198735342,-2.74187945981162
49.3999999999998,5.20541210712784,-2.35250781905769,-2.85290428807015
49.5999999999998,5.18588547418173,-2.05431716986948,-3.13156830431225
49.7999999999998,5.33069046850216,-1.91133735602854,-3.41935311247362
49.9999999999998,5.3490379970656,-1.87883767898881,-3.47020031807679
50.1999999999998,5.20686731228233,-1.71143592644801,-3.49543138583432
50.3999999999998,5.04949155548394,-1.35360930033983,-3.6958822551441
50.5999999999998,5.09194576086535,-1.12213364344993,-3.96981211741542
50.7999999999998,5.14667631399456,-1.04696687543361,-4.09970943856095
50.9999999999998,4.9915756132694,-0.943919972330354,-4.04765564093905
51.1999999999998,4.75524136512326,-0.621939935258442,-4.13330142986482
51.3999999999998,4.65521673477548,-0.292435663498366,-4.36278107127712
51.5999999999998,4.70420513763564,-0.174462951566416,-4.52974218606922
51.7999999999998,4.58269681560992,-0.10299771519198,-4.47969910041794
51.9999999999998,4.31787237765638,0.123305785928493,-4.44117816358488
52.1999999999998,4.10421848806623,0.490984164954854,-4.59520265302109
52.3999999999998,4.05875448459117,0.684128593523473,-4.74288307811465
52.5999999999998,4.01465775139816,0.725752908681759,-4.74041066007992
52.7999999999998,3.74040439330549,0.860343156353166,-4.60074754965866
52.9999999999998,3.45256935678744,1.17287471157382,-4.62544406836126
53.1999999999998,3.31066603786947,1.44304985077557,-4.75371588864505
53.3999999999998,3.2736748044786,1.48113434148113,-4.75480914595973
53.5999999999998,3.05352002788022,1.53961440318998,-4.5931344310702
53.7999999999998,2.71696952305816,1.75828919888849,-4.47525872194665
53.9999999999998,2.50295495711404,2.04204238227468,-4.54499733938871
54.1999999999998,2.41786730366454,2.12863871532745,-4.54650601899199
54.3999999999998,2.28405452952466,2.10595177324382,-4.39000630276848
54.5999999999998,1.94305462178645,2.22991909350481,-4.17297371529126
54.7999999999998,1.6579090724005,2.46454317501408,-4.12245224741458
54.9999999999998,1.54151718805559,2.6030143176696,-4.1445315057252
55.1999999999998,1.44917746717596,2.5439871676718,-3.99316463484775
55.3999999999998,1.17151228830881,2.56502016742319,-3.736532455732
55.5999999999998,0.840727046628432,2.72645999898376,-3.56718704561219
55.7999999999998,0.689542095968554,2.86532488859938,-3.55486698456793
55.9999999999998,0.615546315894435,2.82466245263019,-3.44020876852463
56.1999999999998,0.440040566029399,2.73257555989241,-3.17261612592181
56.3999999999998,0.122434448645939,2.80368392255303,-2.92611837119897
56.5999999999998,-0.0822864177416696,2.91187206250612,-2.82958564476445
56.7999999999998,-0.130391394802812,2.89084198870077,-2.76045059389796
56.9999999999998,-0.230086536142755,2.73671590489054,-2.50662936874778
57.1999999999998,-0.47944318134055,2.69344303753934,-2.21399985619879
57.3999999999998,-0.716269969057266,2.76164298552596,-2.04537301646869
57.5999999999998,-0.764026296790418,2.73600464619411,-1.97197834940369
57.7999999999998,-0.792481442626987,2.56545885704563,-1.77297741441864
57.9999999999998,-0.954830580439615,2.41129600716711,-1.4564654267275
58.1999999999998,-1.17343209590621,2.40993744986184,-1.23650535395563
58.3999999999998,-1.24583139495845,2.39044939296128,-1.14461799800283
58.5999999999998,-1.21509297667196,2.21831346040182,-1.00322048372987
58.7999999999998,-1.28488350054088,1.99585869627222,-0.710975195731349
58.9999999999998,-1.45658894485491,1.90857301479162,-0.451984069936709
59.1999999999998,-1.54321497676078,1.88349892982035,-0.340283953059574
59.3999999999998,-1.47500345437443,1.7240786493067,-0.249075194932273
59.5999999999998,-1.45000532585267,1.47079170397124,-0.0207863781185735
59.7999999999997,-1.5527089915822,1.29830842598308,0.25440056559912
59.9999999999997,-1.62742189850386,1.24130326278554,0.38611863571832
60.1999999999997,-1.55318039698108,1.11613849832597,0.437041898655107
60.3999999999997,-1.43974668268718,0.849224688194571,0.590521994492605
60.5999999999997,-1.45223779897563,0.612447941317343,0.839789857658289
60.7999999999997,-1.51097464676923,0.516481303199744,0.994493343569488
60.9999999999997,-1.43062887057046,0.41561683400849,1.01501203656196
61.1999999999997,-1.25606536280938,0.172496586718221,1.08356877609116
61.3999999999997,-1.17961913960602,-0.102310962594343,1.28193010220037
61.5999999999997,-1.19807245525001,-0.244241514525275,1.44231396977529
61.7999999999997,-1.12875025431038,-0.325506472362092,1.45425672667247
