"Time [ms]","Current(PhaseA) [A]","Current(PhaseB) [A]","Current(PhaseC) [A]"
0,0,0,0
0.2,0.0726174525010486,-0.981926304086169,0.909308851585121
0.4,0.189539330804979,-1.93891726101029,1.74937793020531
0.6,0.361244810931564,-2.84399275369931,2.48274794276775
0.8,0.657472727254719,-3.80167628142461,3.14420355416989
1,0.986636693704181,-4.77630974721366,3.78967305350948
1.2,1.27611302655105,-5.71876781550049,4.44265478894945
1.4,1.62682585399381,-6.5379997360964,4.91117388210259
1.6,2.11507508804154,-7.43744088581276,5.32236579777122
1.8,2.72098178483446,-8.41328820795481,5.69230642312035
2,3.16862230125868,-9.28466736453574,6.11604506327707
2.2,3.71059672514654,-10.2282544942353,6.51765776908873
2.4,4.36717823522847,-11.0727456322456,6.70556739701708
2.6,5.100087333781,-11.9420118346877,6.84192450090668
2.8,5.79005766149054,-12.7199808899399,6.92992322844939
3,6.36260220216613,-13.5287130679878,7.16611086582167
3.2,7.18354186382293,-14.3751333768122,7.19159151298929
3.4,8.02129823002141,-15.1634953203402,7.14219709031874
3.6,8.79721793935346,-15.7472172629466,6.94999932359311
3.8,9.47793457082761,-16.3142304511559,6.83629588032828
4,10.4026071654395,-17.1668669641501,6.76425979871061
4.2,11.407173773796,-17.9423693179659,6.53519554416991
4.4,12.1072147286558,-18.3063869018744,6.19917217321867
4.6,12.8073680228643,-18.4989737015575,5.69160567869324
4.8,13.6873304020704,-19.0797149529881,5.39238455091768
5,14.8019232744483,-19.8386183807085,5.03669510626025
5.2,15.5270313140316,-20.0953461507876,4.56831483675601
5.4,16.0303750735491,-19.9570000870542,3.92662501350507
5.6,16.8054805198051,-20.0978628684199,3.29238234861475
5.8,17.8851803417377,-20.6774907131637,2.79231037142599
6,18.6895183942316,-20.8771660960179,2.18764770178626
6.2,19.0144916589208,-20.5275061761564,1.51301451723569
6.4,19.56608505384,-20.2532276219461,0.687142568106076
6.6,20.579738676889,-20.5045371307809,-0.0752015461081115
6.8,21.3892626664013,-20.6723686617021,-0.716894004699167
7,21.653666168499,-20.2040519533025,-1.44961421519651
7.2,21.843865901393,-19.584865358157,-2.25900054323601
7.4,22.6656655035876,-19.5072783752611,-3.15838712832653
7.59999999999999,23.4293344252408,-19.547701614145,-3.88163281109582
7.79999999999999,23.6763317413115,-19.0924020700403,-4.5839296712712
8,23.5546804855766,-18.2084520493216,-5.34622843625502
8.2,23.9703310620146,-17.8285744013499,-6.14175666066471
8.4,24.6665544850632,-17.7069008448381,-6.95965364022508
8.6,24.8651281573067,-17.2547681820292,-7.6103599752775
8.8,24.5262763818676,-16.2713170239638,-8.25495935790379
9,24.4504348182757,-15.576483693684,-8.87395112459166
9.2,24.8811639887874,-15.2978485028498,-9.58331548593763
9.4,25.0359241501259,-14.7798867548502,-10.2560373952757
9.6,24.5735150138017,-13.8582057076485,-10.7153093061532
9.8,24.0177373453151,-12.8285032847593,-11.1892340605558
10,24.1349567026833,-12.4314556992464,-11.7035010034368
10.2,24.1693783863491,-11.8541596812377,-12.3152187051114
10.4,23.6612256874352,-11.0004711940519,-12.6607544933833
10.6,22.8147649632111,-9.89334950463773,-12.9214154585733
10.8,22.5635486746155,-9.28437253327811,-13.2791761413373
11,22.4693538917,-8.78632267020656,-13.6830312214934
11.2,21.9413864027192,-7.94403041251565,-13.9973559902035
11.4,21.0015491144552,-6.93592904017736,-14.0656200742778
11.6,20.3983936789023,-6.13678291636734,-14.2616107625349
11.8,20.1776057288131,-5.71326027360499,-14.4643454552081
12,19.7031443476358,-5.01163092822817,-14.6915134194077
12.2,18.7693276358362,-4.11241541929207,-14.6569122165441
12.4,17.9702031771739,-3.31617780251192,-14.654025374662
12.6,17.5762203113929,-2.83573436699143,-14.7404859444014
12.8,17.1849070158097,-2.4106511941461,-14.7742558216636
13,16.3401962581236,-1.67268726144105,-14.6675089966826
13.2,15.4491061770399,-0.979386450299897,-14.46971972674
13.4,14.9870483529639,-0.525607074279948,-14.461441278684
13.6,14.5716179784301,-0.228861828264406,-14.3427561501656
13.8,13.8628891503882,0.243775276681865,-14.1066644270701
14,12.9126813886923,0.84237742117958,-13.7550588098719
14.2,12.377837635975,1.22474048352887,-13.6025781195039
14.4,11.9591095531581,1.45609228825282,-13.415201841411
14.6,11.3138509756823,1.7058734909036,-13.0197244665859
14.8,10.4759901932739,2.13939507668895,-12.6153852699628
15,9.83169632428449,2.46924105190607,-12.3009373761906
15.2,9.46414389873288,2.62566665959392,-12.0898105583268
15.4,8.86475457355279,2.75487916351003,-11.6196337370628
15.6,8.18342712702405,2.96038756086821,-11.1438146878923
15.8,7.54226103344407,3.24675554111494,-10.789016574559
16,7.15823265995334,3.32203932942216,-10.4802719893755
16.2,6.69986503145528,3.35384019116603,-10.0537052226213
16.4,6.0680246330357,3.41425248345675,-9.48227711649245
16.6,5.54248637342716,3.54507582448505,-9.08756219791221
16.8,5.15845525535465,3.56900926331303,-8.72746451866767
17,4.86485011154003,3.45450888521603,-8.31935899675607
17.2,4.32886154298186,3.40718070207584,-7.73604224505769
17.4,3.87745190280554,3.40152935003744,-7.27898125284298
17.6,3.56179355938046,3.3605610129096,-6.92235457229006
17.8,3.33150974865446,3.14515789744749,-6.47666764610195
18,3.01060863065624,2.98528141162075,-5.99589004227699
18.2,2.61549381873795,2.89277831758444,-5.50827213632239
18.4,2.38772918202394,2.7536202762594,-5.14134945828334
18.6,2.23068812417895,2.5114005757932,-4.74208869997215
18.8,2.03918588732924,2.22540205563849,-4.26458794296773
19,1.7614816395233,2.04208515062599,-3.80356679014929
19.2,1.59796863090416,1.83645064885451,-3.43441927975867
19.4,1.53987907947318,1.57797999570511,-3.11785907517829
19.6,1.45745637106659,1.24089589469886,-2.69835226576545
19.8,1.32105520427671,0.983284003794264,-2.30433920807098
20,1.23556987343204,0.750101932846268,-1.98567180627831
20.2,1.2640429736265,0.440868149295188,-1.70491112292169
20.4,1.26665765074624,0.0825142485631037,-1.34917189930935
20.6,1.23878168897541,-0.233850521055534,-1.00493116791988
20.8,1.23899005050295,-0.492629720133527,-0.746360330369426
21,1.3515960784248,-0.822511331490281,-0.529084746934515
21.2,1.45636717312898,-1.19700304574323,-0.259364127385753
21.4,1.50909356794035,-1.53956876297694,0.0304751950365936
21.6,1.58368304111293,-1.7909378711743,0.207254830061371
21.8,1.7688405688658,-2.10719396308382,0.338353394218012
22,1.97715394755034,-2.48784042670562,0.510686479155276
22.2,2.08747176928121,-2.83132466375014,0.743852894468927
22.4,2.21565738532914,-3.06798357354777,0.852326188218627
22.6,2.43682744644935,-3.31834865790712,0.881521211457762
22.8,2.74072502749687,-3.6870094361973,0.946284408700432
23,2.92891304905283,-4.02297413869536,1.09406108964253
23.2,3.07663739681265,-4.2552718562081,1.17863445939545
23.4,3.31619367023398,-4.41221104114275,1.09601737090877
23.6,3.67610609890755,-4.72113634490484,1.04503024599729
23.8,3.97028568117536,-5.05240764317303,1.08212196199767
24,4.10521749734819,-5.25486101551837,1.14964351817017
24.2,4.34164484010712,-5.34626073283753,1.0046158927304
24.4,4.70601981682439,-5.52083712796905,0.81481731114466
24.6,5.07645777797201,-5.83111499722437,0.75465721925236
24.8,5.25954553835705,-6.01814422706532,0.758598688708267
25,5.46518925562877,-6.09264060885523,0.627451353226458
25.2,5.80952915787636,-6.12441414294616,0.314884985069801
25.4,6.16308737014318,-6.31152698351877,0.148439613375588
25.6,6.40485089314815,-6.49807760362525,0.0932267104771078
25.8,6.53390446384039,-6.5174278991869,-0.0164765646534883
26,6.82975441646619,-6.46093459795787,-0.368819818508324
26.2,7.16387933576577,-6.47120832343068,-0.692671012335088
26.4,7.44322832914516,-6.63615193292163,-0.80707639622353
26.6,7.54127168403654,-6.62980840316178,-0.911463280874766
26.7999999999999,7.71382239114213,-6.51121279314777,-1.20260959799435
26.9999999999999,8.0578864701727,-6.3970625284492,-1.66082394172351
27.1999999999999,8.2847261049647,-6.403478520894,-1.8812475840707
27.3999999999999,8.39400470248717,-6.43557196036526,-1.95843274212191
27.5999999999999,8.4491131124151,-6.25518162523421,-2.19393148718089
27.7999999999999,8.68103915438332,-6.04271831385419,-2.63832084052912
27.9999999999999,8.94133104116935,-5.91598267687476,-3.02534836429458
28.1999999999999,9.05156639087878,-5.93192883045829,-3.11963756042049
28.3999999999999,9.0287909063447,-5.74736438660257,-3.28142651974213
28.5999999999999,9.08658049717044,-5.44244735387085,-3.64413314329959
28.7999999999999,9.29011994266985,-5.19462583039492,-4.09549411227493
28.9999999999999,9.38120375726595,-5.10088529734145,-4.2803184599245
29.1999999999999,9.38214079693941,-5.02254425550616,-4.35959654143324
29.3999999999999,9.29573916759557,-4.65465761471546,-4.64108155288011
29.5999999999999,9.31594577746369,-4.2938882245383,-5.02205755292539
29.7999999999999,9.41232127362553,-4.08558622219007,-5.32673505143545
29.9999999999999,9.3968946837762,-4.02808093397603,-5.36881374980017
30.1999999999999,9.26076045293648,-3.72517336804837,-5.53558708488812
30.3999999999999,9.08181383065826,-3.24833851039002,-5.83347532026824
30.5999999999999,9.08733837732951,-2.94949573532714,-6.13784264200237
30.7999999999999,9.07911358017761,-2.8346563960717,-6.2444571841059
30.9999999999999,8.92830447201692,-2.66781733139405,-6.26048714062288
31.1999999999999,8.64782853334237,-2.18125036918355,-6.46657816415881
31.3999999999999,8.47544503646282,-1.77205397773254,-6.70339105873028
31.5999999999999,8.47157561773846,-1.5995043560363,-6.87207126170216
31.7999999999999,8.28597727434432,-1.48619024541873,-6.7997870289256
31.9999999999999,8.01410860533043,-1.13327759561308,-6.88083100971735
32.1999999999999,7.69667356543426,-0.639739741850469,-7.05693382358379
32.3999999999999,7.60096387008476,-0.404666577724731,-7.19629729236003
32.5999999999999,7.48188263315215,-0.303581982008477,-7.17830065114367
32.7999999999999,7.14110326869641,-0.101004393980918,-7.04009887471549
32.9999999999999,6.79001197495428,0.341825761384271,-7.13183773633855
33.1999999999999,6.55335015322798,0.672411591302035,-7.22576174453001
33.3999999999999,6.45431777079811,0.761254109078088,-7.2155718798762
33.5999999999999,6.13901388107991,0.876947174799972,-7.01596105587988
33.7999999999999,5.73516999164264,1.17517401653814,-6.91034400818077
33.9999999999999,5.4317393176457,1.54667918206279,-6.97841849970848
34.1999999999999,5.27876703671257,1.66028630388511,-6.93905334059768
34.3999999999999,5.06312768353007,1.70304496540595,-6.76617264893601
34.5999999999999,4.62811540224492,1.8775212452642,-6.50563664750912
34.7999999999999,4.27756867200173,2.17888168359162,-6.45645035559336
34.9999999999999,4.06554338607631,2.34989376838769,-6.41543715446399
35.1999999999999,3.90818601043362,2.32589839279332,-6.23408440322693
35.3999999999999,3.52638729452042,2.39958301096682,-5.92597030548725
35.5999999999999,3.12137733818057,2.58650509879508,-5.70788243697565
35.7999999999999,2.9025449048547,2.76830276684473,-5.67084767169943
35.9999999999999,2.74097718698017,2.73286723479984,-5.47384442178001
36.1999999999999,2.51112409375666,2.68213441397641,-5.19325850773308
36.3999999999999,2.10889562995003,2.77447389225992,-4.88336952220995
36.5999999999999,1.86491662865329,2.89775519114268,-4.76267181979596
36.7999999999999,1.74684951798513,2.87517578682238,-4.6220253048075
36.9999999999999,1.58456670500144,2.73110724906176,-4.3156739540632
37.1999999999999,1.25770399649608,2.71845398845852,-3.97615798495459
37.3999999999999,0.978825866908264,2.76715672303123,-3.74598258993949
37.5999999999999,0.891764137707477,2.74508695487961,-3.63685109258708
37.7999999999999,0.796813864803928,2.5589534913841,-3.35576735618803
37.9999999999999,0.583761207984323,2.42982062894097,-3.0135818369253
38.1999999999999,0.322180932201949,2.42128537434929,-2.74346630655123
38.3999999999999,0.227256320112008,2.36058088609278,-2.58783720620479
38.5999999999999,0.20022210524785,2.18579314995908,-2.38601525520693
38.7999999999999,0.0847597708942784,1.96652194308994,-2.05128171398422
38.9999999999999,-0.1145831655909,1.88087672628594,-1.76629356069504
39.1999999999999,-0.209457485121051,1.81112922738521,-1.60167174226416
39.3999999999999,-0.174024777612871,1.62062970674702,-1.44660492913415
39.5999999999999,-0.206137191646793,1.35900998833766,-1.15287279669086
39.7999999999999,-0.325764691798289,1.19217550461591,-0.866410812817623
39.9999999999999,-0.394681533088229,1.10247375287632,-0.707792219788096
40.1999999999999,-0.325320960831285,0.913442407720333,-0.588121446889048
40.3999999999999,-0.268945311871097,0.638359758344638,-0.369414446473541
40.5999999999999,-0.306454290860576,0.409772544911708,-0.103318254051132
40.7999999999999,-0.344161159539826,0.290145336172455,0.054015823367371
40.9999999999999,-0.253612613732614,0.123217288987517,0.130395324745097
41.1999999999999,-0.110817051090579,-0.155255131888783,0.266072182979361
41.3999999999999,-0.0732001678717021,-0.425287452806946,0.498487620678648
41.5999999999999,-0.0747848901111656,-0.570981530968821,0.645766421079986
41.7999999999999,0.0345442091187267,-0.709034747027794,0.674490537909068
41.9999999999999,0.235801740405027,-0.969969031613251,0.734167291208224
42.1999999999999,0.351960066450436,-1.25309043262129,0.901130366170852
42.3999999999999,0.390487935022631,-1.42144010299891,1.03095216797628
42.5999999999999,0.497816065613151,-1.52265112092503,1.02483505531188
42.7999999999999,0.73172668743136,-1.73111213213011,0.99938544469875
42.9999999999999,0.928388771287412,-2.0060057425803,1.07761697129288
43.1999999999999,1.0037160192481,-2.199744348561,1.1960283293129
43.3999999999998,1.10691526651474,-2.2695578976575,1.16264263114277
43.5999999999998,1.3421115797295,-2.40145478147211,1.05934320174261
43.7999999999998,1.61336525291169,-2.65878611960886,1.04542086669718
43.9999999999998,1.73645503905248,-2.85716929385258,1.1207142548001
44.1999999999998,1.82730096610304,-2.9152262460056,1.08792527990256
44.3999999999998,2.03614738352558,-2.95288790946879,0.916740525943208
44.5999999999998,2.34086267534632,-3.14618165550301,0.805318980156694
44.7999999999998,2.53331482462686,-3.34459032134818,0.811275496721326
44.9999999999998,2.59808501594684,-3.40047324478078,0.802388228833944
45.1999999999998,2.76783698749568,-3.36792487652646,0.600087889030785
45.3999999999998,3.05628355967222,-3.45213889654703,0.395855336874811
45.5999999999998,3.31065974489916,-3.64395774597503,0.333298001075869
45.7999999999998,3.37695412500475,-3.6925096763944,0.315555551389652
45.9999999999998,3.471421746868,-3.61691470978043,0.145492962912422
46.1999999999998,3.72054452529719,-3.57592701503373,-0.144617510263459
46.3999999999998,3.99408808073273,-3.70278719732354,-0.291300883409197
46.5999999999998,4.11031895367357,-3.77208153243011,-0.338237421243465
46.7999999999998,4.11756599107582,-3.65892454951586,-0.458641441559951
46.9999999999998,4.29681461808354,-3.52290429735947,-0.773910320724069
47.1999999999998,4.55784104038263,-3.53202232975958,-1.02581871062305
47.3999999999998,4.71481415179085,-3.61694232195752,-1.09787182983333
47.5999999999998,4.68698233700123,-3.49834193585168,-1.18864040114955
47.7999999999998,4.73899707803291,-3.28905074712053,-1.44994633091238
47.9999999999998,4.96297954850793,-3.17609557949312,-1.78688396901482
48.1999999999998,5.13138573444108,-3.21669326579195,-1.91469246864913
48.3999999999998,5.13236402470126,-3.15437849182298,-1.97798553287828
48.5999999999998,5.06054635186328,-2.89235120490907,-2.16819514695421
48.7999999999998,5.19040480477185,-2.68303986239903,-2.50736494237281
48.9999999999998,5.36549745701736,-2.63259586794887,-2.73290158906849
49.1999999999998,5.37566435811495,-2.61482103401453,-2.76084332410041
49.3999999999998,5.23892133419536,-2.36696816268031,-2.87195317151505
49.5999999999998,5.21898137900865,-2.06873455568415,-3.15024682332451
49.7999999999998,5.36427070549036,-1.9257118202371,-3.43855888525326
49.9999999999998,5.38325094631004,-1.89413846959339,-3.48911247671664
50.1999999999998,5.24056540809789,-1.72650957552316,-3.51405583257473
50.3999999999998,5.08288853951239,-1.36884643109533,-3.71404210841705
50.5999999999998,5.12512685510337,-1.13749004405735,-3.98763681104602
50.7999999999998,5.18015734470141,-1.06230857785206,-4.11784876684935
50.9999999999998,5.02477297434889,-0.959419765422436,-4.06535320892645
51.1999999999998,4.78810544296156,-0.637795528269504,-4.15030991469206
51.3999999999998,4.68713778378962,-0.307894954149942,-4.37924282963968
51.5999999999998,4.73703233186176,-0.189857764252426,-4.54717456760933
51.7999999999998,4.61558316447859,-0.118835337869627,-4.49674782660897
51.9999999999998,4.3502135783868,0.107219470395693,-4.45743304878249
52.1999999999998,4.13633472572657,0.474631129458683,-4.61096585518525
52.3999999999998,4.0902667500663,0.668416422673316,-4.75868317273961
52.5999999999998,4.04652137499357,0.709822187703704,-4.75634356269728
52.7999999999998,3.77227544402004,0.843848137808859,-4.6161235818289
52.9999999999998,3.48408437563145,1.15630150563866,-4.64038588127011
53.1999999999998,3.34120164568437,1.42736353530845,-4.76856518099282
53.3999999999998,3.30404352617554,1.46589702542959,-4.76994055160513
53.5999999999998,3.08437967808976,1.5236805065164,-4.60806018460616
53.7999999999998,2.74775628859186,1.74191317093737,-4.48966945952923
53.9999999999998,2.53319618398246,2.02553080217765,-4.55872698616011
54.1999999999998,2.44721413686572,2.11289372693062,-4.56010786379634
54.3999999999998,2.31417618678383,2.08987552543127,-4.4040517122151
54.5999999999998,1.97349650694577,2.21294573990529,-4.18644224685106
54.7999999999998,1.68749749832946,2.44768890481327,-4.13518640314272
54.9999999999998,1.57015409329073,2.58717498111976,-4.15732907441048
55.1999999999998,1.47778897199433,2.52822111232716,-4.00601008432149
55.3999999999998,1.20037577722701,2.54910935393013,-3.74948513115714
55.5999999999998,0.869654401471033,2.71002736780079,-3.57968176927183
55.7999999999998,0.717756460800984,2.84937325575146,-3.56712971655244
55.9999999999998,0.643363455935485,2.8089970305885,-3.45236048652398
56.1999999999998,0.468153264492797,2.71713235589613,-3.18528562038893
56.3999999999998,0.150302686811427,2.78802205978673,-2.93832474659815
56.5999999999998,-0.0551834072076922,2.89658402252575,-2.84140061531806
56.7999999999998,-0.103741219638847,2.8761018151244,-2.77236059548555
56.9999999999998,-0.203291651286495,2.72201467673868,-2.51872302545218
57.1999999999998,-0.452451080162648,2.67887032666784,-2.2264192465052
57.3999999999998,-0.689577652471372,2.74692056979772,-2.05734291732635
57.5999999999998,-0.738099619237176,2.72154423144088,-1.98344461220371
57.7999999999998,-0.766234943769038,2.5511501912829,-1.78491524751386
57.9999999999998,-0.928340101861258,2.39738350970038,-1.46904340783913
58.1999999999998,-1.14758799986734,2.39608515718163,-1.24849715731429
58.3999999999998,-1.22051520136524,2.37646501617354,-1.15594981480829
58.5999999999998,-1.19018609180396,2.20485999543077,-1.01467390362681
58.7999999999998,-1.25995968658633,1.98297080802799,-0.723011121441666
58.9999999999998,-1.43133652733594,1.89590074239146,-0.46456421505553
59.1999999999998,-1.51831195607721,1.87063509763124,-0.352323141554026
59.3999999999998,-1.45056342522716,1.71142427442098,-0.260860849193825
59.5999999999998,-1.42575956627457,1.45883100699495,-0.0330714407203845
59.7999999999997,-1.52819133050049,1.28635702398046,0.241834306520038
59.9999999999997,-1.60356017546034,1.2297371924488,0.373822983011543
60.1999999999997,-1.52937988688691,1.1043190831512,0.425060803735712
60.3999999999997,-1.41656838153753,0.838310301973689,0.578258079563842
60.5999999999997,-1.42886614831742,0.601981723730072,0.826884424587351
60.7999999999997,-1.48766052979931,0.505970354787422,0.981690175011889
60.9999999999997,-1.40713798704898,0.404534980989214,1.00260300605977
61.1999999999997,-1.2329084849087,0.162204119445197,1.07070436546351
61.3999999999997,-1.15685813161657,-0.111864094105645,1.26872222572222
61.5999999999997,-1.17558545168985,-0.253561133085543,1.4291465847754
61.7999999999997,-1.10632384207893,-0.33501875026438,1.44134259234331
