"Time [ms]","Current(PhaseA) [A]","Current(PhaseB) [A]","Current(PhaseC) [A]"
0,0,0,0
0.2,0.0729558024613644,-0.982103529739538,0.909147727278173
0.4,0.190403913782579,-1.93940911763322,1.74900520385065
0.6,0.363003478240486,-2.84491090543988,2.4819074271994
0.8,0.660769544245718,-3.80330335398864,3.14253380974293
1,0.991514962192049,-4.77843243852219,3.78691747633014
1.2,1.28247168798068,-5.72188512902203,4.43941344104134
1.4,1.63506314613225,-6.54197919033683,4.90691604420458
1.6,2.12611779725391,-7.44311613931503,5.31699834206112
1.8,2.73527353032109,-8.42139031490207,5.68611678458098
2,3.18475067363268,-9.29314893733257,6.10839826369989
2.2,3.73002910293641,-10.2390333449162,6.50900424197973
2.4,4.39079231651021,-11.0857151477559,6.69492283124568
2.6,5.12812834175897,-11.9569166575555,6.82878831579656
2.8,5.8223612901884,-12.7372354877111,6.91487419752266
3,6.39953909134245,-13.5499443168727,7.15040522553027
3.2,7.23025047419476,-14.4056577146486,7.17540724045388
3.4,8.07093317224394,-15.1926391765767,7.12170600433275
3.6,8.8506336482467,-15.7788791970021,6.9282455487554
3.8,9.53716824624488,-16.3488432589758,6.81167501273089
4,10.473024354277,-17.2090893989615,6.73606504468449
4.2,11.4850360161419,-17.9903810466806,6.50534503053865
4.4,12.1879660948002,-18.3563111612118,6.16834506641167
4.6,12.8957728900042,-18.5536088903238,5.65783600031958
4.8,13.7872229848443,-19.1423124111687,5.35508942632447
5,14.9145389730684,-19.9098943222151,4.99535534914675
5.2,15.6433118332555,-20.1698466115451,4.52653477828955
5.4,16.1519140838374,-20.0345030886254,3.88258900478794
5.6,16.9367139572693,-20.1802041730874,3.24349021581817
5.8,18.0335286561366,-20.7702590476379,2.73673039150135
6,18.8443183485649,-20.976015999482,2.13169765091708
6.2,19.1736012549376,-20.6287041424544,1.45510288751682
6.4,19.7377273054911,-20.3594049200383,0.621677614547224
6.6,20.7719181920031,-20.6223198714133,-0.149598320589831
6.8,21.5929686581115,-20.7984724468997,-0.794496211211762
7,21.8596171954362,-20.3327834315519,-1.52683376388429
7.2,22.0556125338384,-19.714166894802,-2.34144563903644
7.4,22.8960331587306,-19.6461284690339,-3.2499046896967
7.59999999999999,23.6770278437829,-19.696351819875,-3.98067602390786
7.79999999999999,23.9273214511676,-19.2455143825143,-4.68180706865338
8,23.8108699911209,-18.363401951606,-5.44746803951488
8.2,24.2413771502547,-17.9901078065434,-6.25126934371136
8.4,24.9537909586979,-17.8774693675684,-7.07632159112951
8.6,25.1585505734442,-17.4307561838585,-7.72779438958571
8.8,24.8208768833086,-16.4473263745328,-8.37355050877585
9,24.7497223242985,-15.7520645580525,-8.99765776624603
9.2,25.1948512987116,-15.4851576283478,-9.70969367036376
9.4,25.3559783371733,-14.9742571185176,-10.3817212186557
9.6,24.8912336918023,-14.0488388234126,-10.8423948683897
9.8,24.3293733340998,-13.0107642067455,-11.3186091273543
10,24.4517731814585,-12.6153612795165,-11.836411901942
10.2,24.495133290099,-12.046403844858,-12.448729445241
10.4,23.983746128207,-11.1924834043513,-12.7912627238558
10.6,23.1247292031875,-10.0760310984081,-13.0486981047794
10.8,22.8725847159396,-9.46486313959856,-13.407721576341
11,22.7825230371511,-8.97199910899971,-13.8105239281514
11.2,22.2518549782296,-8.13026664065468,-14.1215883375749
11.4,21.2947032058788,-7.11044423837361,-14.1842589675052
11.6,20.6843660352199,-6.30591050824312,-14.3784555269768
11.8,20.4647956590058,-5.88470662426915,-14.5800890347366
12,19.988959394714,-5.18389810247255,-14.8050612922414
12.2,19.0451424164599,-4.28053655368375,-14.7646058627761
12.4,18.229975596815,-3.47417758593611,-14.7557980108789
12.6,17.8332532843182,-2.99256692999138,-14.8406863543268
12.8,17.4441987959577,-2.5712106146024,-14.8729881813553
13,16.596585390088,-1.83455786606921,-14.7620275240188
13.2,15.6878983792921,-1.13102349435114,-14.556874884941
13.4,15.2163116263491,-0.670906885115714,-14.5454047412334
13.6,14.810514997601,-0.380956193765357,-14.4295588038356
13.8,14.101525142059,0.0888535611061682,-14.1903787031652
14,13.1415964597877,0.690309259807259,-13.8319057195949
14.2,12.5979838803132,1.07825155025791,-13.6762354305711
14.4,12.1839813318198,1.30772545951506,-13.4917067913349
14.6,11.5406639803062,1.55364835053115,-13.0943123308373
14.8,10.6917541875565,1.98956232851557,-12.681316516072
15,10.0390687890804,2.32287665546166,-12.361945444542
15.2,9.67430302410336,2.48027368821525,-12.1545767123186
15.4,9.07932796057357,2.60442173810435,-11.6837496986779
15.6,8.39566047281982,2.80918383058349,-11.2048443034033
15.8,7.74472511585186,3.09890291949196,-10.8436280353438
16,7.35795143726358,3.17991135535058,-10.5378627926142
16.2,6.90431701396813,3.21020613348471,-10.1145231474528
16.4,6.27422948205659,3.26530042373537,-9.53952990579196
16.6,5.74435209584439,3.39871312190781,-9.1430652177522
16.8,5.35247050090245,3.4286533728329,-8.78112387373535
17,5.05862223696276,3.31723710158397,-8.37585933854673
17.2,4.52419708964922,3.26811146030412,-7.79230854995333
17.4,4.07140329716064,3.26182182020021,-7.33322511736084
17.6,3.74923217409168,3.22579791602351,-6.97503009011519
17.8,3.5401721341712,3.01320470481405,-6.55337683898525
18,3.1988595968014,2.85567609776645,-6.05453569456785
18.2,2.80272346866661,2.76159631814109,-5.5643197868077
18.4,2.57149589489679,2.62493110626015,-5.19642700115694
18.6,2.41318166205127,2.38578363328285,-4.79896529533412
18.8,2.22421989186835,2.10214972474911,-4.32636961661747
19,1.94635941819719,1.91892528572147,-3.86528470391866
19.2,1.78079394374485,1.71363530687276,-3.4944292506176
19.4,1.71947688182733,1.45873419769425,-3.17821107952158
19.6,1.63893513326561,1.12477133607517,-2.76370646934078
19.8,1.50389066308067,0.868600880285802,-2.37249154336647
20,1.41822706616239,0.634657869463648,-2.05288493562604
20.2,1.44430085434868,0.32842656860826,-1.77272742295694
20.4,1.44548439842056,-0.0257811376129692,-1.41970326080759
20.6,1.41931550079155,-0.339848493107836,-1.07946700768371
20.8,1.41935095962493,-0.598512099543034,-0.820838860081893
21,1.53134750406351,-0.928291972281873,-0.603055531781637
21.2,1.63365410707168,-1.2986586917686,-0.334995415303081
21.4,1.68591694684695,-1.63790530600469,-0.0480116408422595
21.6,1.76230312860254,-1.88828869712627,0.125985568523737
21.8,1.94752580636922,-2.20553398482274,0.258008178453517
22,2.15408306737558,-2.58352646288906,0.429443395513482
22.2,2.26194131697629,-2.92280233512528,0.660861018148985
22.4,2.3921309259575,-3.15796242765693,0.765831501699432
22.6,2.61366580803431,-3.40743477166262,0.793768963628311
22.8,2.91722061438485,-3.77671515364921,0.859494539264364
23,3.10260376794787,-4.10913450863514,1.00653074068727
23.2,3.25062009207347,-4.33948715614932,1.08886706407586
23.4,3.49317966568606,-4.49609675446332,1.00291708877726
23.6,3.85380515856965,-4.80741655095413,0.953611392384483
23.8,4.14567848355243,-5.13635684932185,0.990678365769419
24,4.27707187705078,-5.33417142493932,1.05709954788855
24.2,4.51838496948817,-5.42615211602315,0.907767146534979
24.4,4.88514232030671,-5.60279520791538,0.717652887608661
24.6,5.25386608236314,-5.91394220942277,0.660076127059628
24.8,5.43473045407965,-6.09811429799481,0.663383843915161
25,5.64489508475723,-6.17309753939929,0.528202454642067
25.2,5.99452616909661,-6.20775608638937,0.213229917292763
25.4,6.34337124831693,-6.39386606502428,0.0504948167073573
25.6,6.57997750500328,-6.57829367357289,-0.00168383143039197
25.8,6.71160250604642,-6.59739694012264,-0.114205565923788
26,7.01342584151832,-6.54307661530216,-0.47034922621616
26.2,7.34623240890702,-6.55215089276056,-0.794081516146463
26.4,7.62130795762477,-6.71706315607658,-0.904244801548183
26.6,7.71923278761389,-6.71057712146018,-1.00865566615371
26.7999999999999,7.8971360759047,-6.59455840536461,-1.30257767054009
26.9999999999999,8.24562573583794,-6.48262661330977,-1.76299912252816
27.1999999999999,8.46760372384306,-6.48705296131961,-1.98055076252345
27.3999999999999,8.57133124102649,-6.51750470642366,-2.05382653460283
27.5999999999999,8.63183227298644,-6.34054345891396,-2.29128881407248
27.7999999999999,8.87053024964384,-6.13203147354484,-2.738498776099
27.9999999999999,9.13043229283025,-6.00500042196114,-3.12543187086911
28.1999999999999,9.23616014886612,-6.02079715016826,-3.21536299869786
28.3999999999999,9.21744692715458,-5.83866947826525,-3.37877744888933
28.5999999999999,9.28142564287921,-5.53690435370307,-3.74452128917614
28.7999999999999,9.48370485046802,-5.28809015116254,-4.19561469930548
28.9999999999999,9.56934706051089,-5.19337838553765,-4.37596867497324
29.1999999999999,9.57366275172286,-5.11996503748205,-4.4536977142408
29.3999999999999,9.49349377625167,-4.75542537621117,-4.7380684000405
29.5999999999999,9.51131910294169,-4.39257629358273,-5.11874280935896
29.7999999999999,9.60107427122788,-4.18005279250716,-5.42102147872073
29.9999999999999,9.58813409783954,-4.12683810963284,-5.46129598820669
30.1999999999999,9.45788197500077,-3.82732785558867,-5.6305541194121
30.3999999999999,9.27557991796883,-3.34893051311644,-5.92664940485239
30.5999999999999,9.27489307331935,-3.04679377765812,-6.22809929566122
30.7999999999999,9.26695628942949,-2.93338727083888,-6.33356901859061
30.9999999999999,9.12142604064274,-2.77191406451202,-6.34951197613072
31.1999999999999,8.83843390410807,-2.28372427805997,-6.5547096260481
31.3999999999999,8.65891922097514,-1.8708167233999,-6.78810249757524
31.5999999999999,8.65484523702119,-1.69774907150103,-6.95709616552016
31.7999999999999,8.47281058616561,-1.58962148952248,-6.88318909664313
31.9999999999999,8.20288814784063,-1.23809349814826,-6.96479464969237
32.1999999999999,7.87871395719721,-0.741081331061173,-7.13763262613604
32.3999999999999,7.77991964835463,-0.504428132303574,-7.27549151605105
32.5999999999999,7.66541134940606,-0.407038850685181,-7.25837249872088
32.7999999999999,7.32593024730586,-0.208441442908725,-7.11748880439714
32.9999999999999,6.97122523601465,0.236428925286284,-7.20765416130094
33.1999999999999,6.72819176016953,0.569997795534646,-7.29818955570417
33.3999999999999,6.63053769951981,0.659561710432218,-7.29009940995203
33.5999999999999,6.31901866883561,0.771492551980957,-7.09051122081657
33.7999999999999,5.93936143047702,1.06641948223172,-7.00578091270874
33.9999999999999,5.60536684033976,1.44092247305084,-7.04628931339061
34.1999999999999,5.44963406013475,1.5576742519552,-7.00730831208995
34.3999999999999,5.23687899804172,1.59941773031537,-6.83629672835709
34.5999999999999,4.80312820169136,1.76971205000055,-6.57284025169191
34.7999999999999,4.44930806934562,2.0721242109567,-6.52143228030232
34.9999999999999,4.23076767927699,2.24685988551027,-6.47762756478725
35.1999999999999,4.07467060261564,2.22433559820256,-6.29900620081819
35.3999999999999,3.69455266779125,2.29513892874106,-5.98969159653231
35.5999999999999,3.28832645989989,2.48076907627276,-5.76909553617265
35.7999999999999,3.06426504475243,2.66559664483146,-5.72986168958389
35.9999999999999,2.93155045087101,2.62375490966537,-5.55530536053638
36.1999999999999,2.67425483240868,2.5814752954478,-5.25573012785649
36.3999999999999,2.27053581956214,2.67184039617524,-4.94237621573738
36.5999999999999,2.02230615857142,2.7961440161808,-4.81845017475222
36.7999999999999,1.90222725589196,2.77606801721189,-4.67829527310385
36.9999999999999,1.74168007368377,2.63307992189405,-4.37475999557781
37.1999999999999,1.41510017357666,2.61953777536283,-4.03463794893949
37.3999999999999,1.13429407756281,2.66684799230244,-3.80114206986525
37.5999999999999,1.04522456649295,2.64810449888672,-3.69332906537966
37.7999999999999,0.94997632929525,2.46416102043498,-3.41413734973023
37.9999999999999,0.738015424333197,2.33562340962719,-3.07363883396038
38.1999999999999,0.474942720203558,2.32593597701277,-2.80087869721633
38.3999999999999,0.378272571839777,2.26603891068851,-2.64431148252829
38.5999999999999,0.349462052503279,2.09429388526534,-2.44375593776862
38.7999999999999,0.236205297401644,1.87647958728153,-2.11268488468317
38.9999999999999,0.0363509213110206,1.79159233611704,-1.82794325742806
39.1999999999999,-0.0598576476813644,1.72163742061484,-1.66177977293347
39.3999999999999,-0.0267122838340812,1.53394693888189,-1.50723465504781
39.5999999999999,-0.0582622712142107,1.27399235935702,-1.2157300881428
39.7999999999999,-0.176933412953881,1.10859233522241,-0.931658922268526
39.9999999999999,-0.246378342799991,1.01798600563282,-0.771607662832831
40.1999999999999,-0.178439072813996,0.830066094316093,-0.651627021502097
40.3999999999999,-0.124013480895005,0.558402098555356,-0.434388617660351
40.5999999999999,-0.160775711108931,0.331738513318956,-0.170962802210026
40.7999999999999,-0.198144500728958,0.212081224503312,-0.0139367237743544
40.9999999999999,-0.108453392952562,0.0451445089042645,0.0633088840482978
41.1999999999999,0.0323211929158219,-0.230678664835175,0.198357471919353
41.3999999999999,0.068313281680601,-0.497974191262002,0.429660909581401
41.5999999999999,0.0679617656505683,-0.642997274582794,0.575035508932225
41.7999999999999,0.177321287020301,-0.781319344339608,0.603998057319307
41.9999999999999,0.377843307562225,-1.04172580635081,0.663882498788589
42.1999999999999,0.491732289640883,-1.32144401591772,0.829711726276838
42.3999999999999,0.530609674537776,-1.48793790171117,0.957328227173399
42.5999999999999,0.637892103102193,-1.58787495859822,0.949982855496022
42.7999999999999,0.871683449499504,-1.79702058775271,0.925337138253208
42.9999999999999,1.06730843667169,-2.07063876734904,1.00333033067735
43.1999999999999,1.1414255575261,-2.26197981074833,1.12055425322223
43.3999999999998,1.24625865306772,-2.33084074865269,1.08458209558497
43.5999999999998,1.48157385534468,-2.46380384275483,0.982229987410147
43.7999999999998,1.75205091153112,-2.72081767164134,0.968766760110226
43.9999999999998,1.87254962018407,-2.91609580157216,1.04354618138809
44.1999999999998,1.96369964994974,-2.97313812462041,1.00943847467067
44.3999999999998,2.17426181807792,-3.0110483699027,0.836786551824771
44.5999999999998,2.47905701314124,-3.20550836565674,0.726451352515503
44.7999999999998,2.66900230619906,-3.40255950457967,0.733557198380606
44.9999999999998,2.73235354221791,-3.45605813171824,0.723704589500333
45.1999999999998,2.90476520824747,-3.42407911644753,0.519313908200058
45.3999999999998,3.19340242671537,-3.5090387389716,0.315636312256229
45.5999999999998,3.44653071553756,-3.70160597629993,0.255075260762371
45.7999999999998,3.51035984483676,-3.74755316503773,0.237193320200975
45.9999999999998,3.60435079012006,-3.67047422016776,0.0661234300477007
46.1999999999998,3.85602550423655,-3.63028542456736,-0.225740079669182
46.3999999999998,4.12957684250206,-3.7588716958276,-0.370705146674456
46.5999999999998,4.24435481714132,-3.82727581314249,-0.417079003998834
46.7999999999998,4.24934062701597,-3.71174827485938,-0.537592352156598
46.9999999999998,4.43229572683726,-3.57697402743311,-0.855321699404143
47.1999999999998,4.69369294585188,-3.58689332829707,-1.10679961755481
47.3999999999998,4.84881097469687,-3.67279632184145,-1.17601465285542
47.5999999999998,4.81796345894336,-3.55248078820291,-1.26548267074045
47.7999999999998,4.87080763073145,-3.34290892330356,-1.5278987074279
47.9999999999998,5.0979483411179,-3.23082937925391,-1.867118961864
48.1999999999998,5.26598144278518,-3.27353716423658,-1.9924442785486
48.3999999999998,5.26521889751859,-3.21096512782028,-2.05425376969831
48.5999999999998,5.19221005749499,-2.94734343874262,-2.24486661875237
48.7999999999998,5.32371205558771,-2.73849918577388,-2.58521286981383
48.9999999999998,5.50014504323638,-2.69017503840161,-2.80997000483477
49.1999999999998,5.5097370241173,-2.67431584673002,-2.83542117738728
49.3999999999998,5.37038527401525,-2.42515171589991,-2.94523355811534
49.5999999999998,5.34923446495377,-2.1256467645807,-3.22358770037307
49.7999999999998,5.49658738568172,-1.98339384147427,-3.51319354420744
49.9999999999998,5.51573079980518,-1.95360867229531,-3.56212212750987
50.1999999999998,5.37198921192346,-1.78678431847012,-3.58520489345334
50.3999999999998,5.21185173377304,-1.4271420389918,-3.78470969478125
50.5999999999998,5.25450209145998,-1.19579940766356,-4.05870268379642
50.7999999999998,5.31078294313418,-1.12174202785398,-4.1890409152802
50.9999999999998,5.15480926437119,-1.02189124066868,-4.13291802370251
51.1999999999998,4.9161443413372,-0.699034040925777,-4.21711030041142
51.3999999999998,4.81230888142363,-0.366684307890438,-4.44562457353319
51.5999999999998,4.86358736143374,-0.24871323882545,-4.61487412260829
51.7999999999998,4.74375983127081,-0.180699502344858,-4.56306032892595
51.9999999999998,4.4777767411744,0.0441694924015398,-4.52194623357594
52.1999999999998,4.26059708007316,0.413652095692529,-4.67424917576569
52.3999999999998,4.21233716473353,0.608840678435718,-4.82117784316925
52.5999999999998,4.17233337882005,0.647947123554113,-4.82028050237416
52.7999999999998,3.89917536892125,0.778970918843321,-4.67814628776457
52.9999999999998,3.60716964523245,1.09277753527381,-4.69994718050625
53.1999999999998,3.46045671240235,1.36636179272389,-4.82681850512624
53.3999999999998,3.42206497117781,1.40582184825597,-4.82788681943378
53.5999999999998,3.20575476246522,1.46104250120047,-4.66679726366568
53.7999999999998,2.86798917511023,1.6775227335814,-4.54551190869163
53.9999999999998,2.64969665035412,1.96327549429886,-4.61297214465298
54.1999999999998,2.56123121178024,2.05280047527672,-4.61403168705697
54.3999999999998,2.43154858308904,2.02808585961016,-4.4596344426992
54.5999999999998,2.09021305732918,2.14928171685359,-4.23949477418277
54.7999999999998,1.80124979715146,2.38525137659116,-4.18650117374262
54.9999999999998,1.68141128633355,2.52683418573548,-4.20824547206903
55.1999999999998,1.59082417511676,2.46762366758873,-4.0584478427055
55.3999999999998,1.31343415362686,2.48778842707544,-3.80122258070229
55.5999999999998,0.980631297924024,2.64785823783278,-3.62848953575681
55.7999999999998,0.825924034498372,2.78866952152462,-3.61459355602299
55.9999999999998,0.752851013340589,2.74934820393766,-3.50219921727825
56.1999999999998,0.578576018792241,2.65764632229477,-3.23622234108702
56.3999999999998,0.258585811563653,2.72758507168611,-2.98617088324976
56.5999999999998,0.0502887366070733,2.83599299912775,-2.88628173573482
56.7999999999998,0.000662728353929463,2.81752649216771,-2.81818922052164
56.9999999999998,-0.0982422943362638,2.66457577246998,-2.56633347813372
57.1999999999998,-0.347167133052533,2.6209716432461,-2.27380451019357
57.3999999999998,-0.586110838245416,2.68877444460151,-2.1026636063561
57.5999999999998,-0.636535665344571,2.6653628655258,-2.02882720018123
57.7999999999998,-0.665433434783394,2.49642887211095,-1.83099543732755
57.9999999999998,-0.826869862675024,2.3429746674715,-1.51610480479648
58.1999999999998,-1.04749495463631,2.34192776957725,-1.29443281494094
58.3999999999998,-1.12156576433707,2.3224814902683,-1.20091572593123
58.5999999999998,-1.09296656738212,2.15298886906213,-1.06002230168001
58.7999999999998,-1.16209267227212,1.93209524430608,-0.770002572033955
58.9999999999998,-1.33402235277951,1.84607401310805,-0.512051660328543
59.1999999999998,-1.42230927621193,1.8202894168594,-0.397980140647471
59.3999999999998,-1.35541591218993,1.66252318255632,-0.307107270366387
59.5999999999998,-1.33105062705872,1.41158698815303,-0.0805363610943095
59.7999999999997,-1.43327718940611,1.24008882851301,0.193188360893099
59.9999999999997,-1.50959730803011,1.18302345537746,0.326573852652649
60.1999999999997,-1.43595378384582,1.0578053077202,0.378148476125618
60.3999999999997,-1.32441901857965,0.793652635832824,0.53076638274683
60.5999999999997,-1.33678907070759,0.558633484297296,0.778155586410289
60.7999999999997,-1.39522357058797,0.463162264573175,0.93206130601479
60.9999999999997,-1.31568252865238,0.362318749918867,0.953363778733516
61.1999999999997,-1.14256206011909,0.120926381249007,1.02163567887008
61.3999999999997,-1.06754215233146,-0.151883221176203,1.21942537350767
61.5999999999997,-1.08611589333539,-0.292827255173801,1.37894314850919
61.7999999999997,-1.01668147403215,-0.374027143305343,1.3907086173375
