"Time [ms]","Current(PhaseA) [A]","Current(PhaseB) [A]","Current(PhaseC) [A]"
0,0,0,0
0.2,0.0736214982138873,-0.982452681587237,0.90883118337335
0.4,0.192159377597885,-1.94024815786207,1.74808878026418
0.6,0.366420746311656,-2.84657895414843,2.48015820783678
0.8,0.666980819710012,-3.80632967442947,3.13934885471946
1,1.00067586864408,-4.78303604582306,3.78236017717899
1.2,1.29439685307234,-5.72786435559583,4.43346750252348
1.4,1.6508717789286,-6.54977118937303,4.89889941044443
1.6,2.1472030275517,-7.45382730301857,5.30662427546687
1.8,2.76224066396384,-8.43509650756108,5.67285584359724
2,3.21618231648255,-9.30971961646389,6.09353729998135
2.2,3.76834495820475,-10.2599870443903,6.49164208618554
2.4,4.43710995532214,-11.1113181476673,6.67420819234511
2.6,5.18199493060344,-11.9862805777741,6.80428564717062
2.8,5.88354274916653,-12.7712951816768,6.88775243251025
3,6.46753356880881,-13.5873760841144,7.11984251530557
3.2,7.31211266542499,-14.4502798686471,7.13816720322211
3.4,8.16635679262177,-15.2488771161744,7.08252032355262
3.6,8.95362309199148,-15.8384102374582,6.88478714546672
3.8,9.65265527196991,-16.4163887936889,6.76373352171902
4,10.6084166661768,-17.2920686496096,6.68365198343282
4.2,11.6349154496371,-18.0841633660226,6.4492479163855
4.4,12.3467614195505,-18.4558051634696,6.10904374391916
4.6,13.0658770429231,-18.6573427269756,5.5914656840525
4.8,13.9814619727471,-19.2630611049719,5.28159913222479
5,15.1322842724964,-20.0474630487216,4.91517877622518
5.2,15.8718878810205,-20.3155313988778,4.44364351785729
5.4,16.3877561921137,-20.1829594225348,3.7952032304211
5.6,17.1993797579364,-20.3454088620471,3.14602910411061
5.8,18.3286028705801,-20.9558365787172,2.62723370813712
6,19.1517592326219,-21.1720493494492,2.02029011682725
6.2,19.4890146267628,-20.8298177267445,1.34080309998171
6.4,20.069699346173,-20.5664821682886,0.496782822115552
6.6,21.1491108631135,-20.8558510049161,-0.293259858197359
6.8,21.9925026274265,-21.0473678680635,-0.945134759362933
7,22.2690851510126,-20.5886311665105,-1.68045398450209
7.2,22.4750820007395,-19.9722117625788,-2.50287023816073
7.4,23.3578705927965,-19.9252079656912,-3.43266262710533
7.59999999999999,24.1693519733749,-19.9937943751092,-4.17555759826564
7.79999999999999,24.4327793705403,-19.5543885332914,-4.87839083724886
8,24.3240929211222,-18.6738824723395,-5.65021044878272
8.2,24.785005703238,-18.312988624664,-6.47201707857397
8.4,25.534243020388,-18.2218001300207,-7.31244289036737
8.6,25.7566613004984,-17.7877614560841,-7.96889984441421
8.8,25.4194966365009,-16.8029060344059,-8.61659060209499
9,25.3617350405713,-16.1096255809589,-9.25210945961241
9.2,25.8331990577479,-15.8575466487459,-9.97565240900198
9.4,26.0116877099753,-15.3587867199452,-10.6529009900301
9.6,25.5416333895193,-14.4314364705999,-11.1101969189194
9.8,24.9725122072363,-13.386888595297,-11.5856236119393
10,25.105989881749,-12.9939824452552,-12.1120074364937
10.2,25.1613238636601,-12.4367791896435,-12.7245446740166
10.4,24.6452119300441,-11.5843813293373,-13.0608306007069
10.6,23.7639931861924,-10.4492441409308,-13.3147490452616
10.8,23.5048362809667,-9.82950170591985,-13.6753345750469
11,23.4205925220922,-9.34430395868221,-14.07628856341
11.2,22.8912949543893,-8.50276963862478,-14.3885253157645
11.4,21.9049081976959,-7.46859373526395,-14.4363144624319
11.6,21.2744110518848,-6.65240843190555,-14.6220026199792
11.8,21.0549474254224,-6.23586515399453,-14.8190822714279
12,20.5773530524154,-5.53671987456847,-15.0406331778469
12.2,19.6125895738418,-4.62438031481763,-14.9882092590241
12.4,18.763837427722,-3.79794286759391,-14.9658945601281
12.6,18.3666688288189,-3.31248741628171,-15.0541814125372
12.8,17.9811373750663,-2.90167163376597,-15.0794657413004
13,17.1247881292934,-2.16565783589351,-14.9591302933999
13.2,16.1844478921358,-1.44498900354014,-14.7394588885957
13.4,15.6907655547299,-0.96996189495662,-14.7208036597732
13.6,15.3051712848805,-0.694788372190851,-14.6103829126896
13.8,14.5937311552908,-0.229071866118144,-14.3646592891727
14,13.6155266347997,0.379442827053176,-13.9949694618529
14.2,13.0464661780649,0.781564919525763,-13.8280310975906
14.4,12.6410390954544,1.00389211609693,-13.6449312115513
14.6,12.0091798304419,1.23881612375132,-13.2479959541932
14.8,11.1500455818979,1.67516070578053,-12.8252062876785
15,10.4686937045862,2.02171227388599,-12.4904059784722
15.2,10.1113304107428,2.17924763281819,-12.290578043561
15.4,9.52663425458907,2.29408021976756,-11.8207144743566
15.6,8.83611615514093,2.49605496343379,-11.3321711185747
15.8,8.16696554509454,2.79219269622914,-10.9591582413237
16,7.77296246073811,2.88140387691236,-10.6543663376505
16.2,7.32452101549397,2.90991967249789,-10.2344406879919
16.4,6.70267428213472,2.9579717632446,-9.66064604537932
16.6,6.16571796169293,3.09515191795491,-9.26086987964784
16.8,5.75808461786749,3.13544064183475,-8.89352525970223
17,5.4627929890785,3.03106507300846,-8.49385806208696
17.2,4.93218582393813,2.97754083301078,-7.90972665694891
17.4,4.47973982490198,2.97011236656994,-7.44985219147192
17.6,4.14298464310063,2.94330808409244,-7.08629272719307
17.8,3.93167224287473,2.73861969737522,-6.67029194024995
18,3.59471824205568,2.58334492471389,-6.17806316676957
18.2,3.19983667011812,2.48552627277757,-5.68536294289569
18.4,2.96030694014944,2.35391517327264,-5.31422211342208
18.6,2.79880005117481,2.12172146505499,-4.92052151622981
18.8,2.61525582202816,1.84265538722334,-4.4579112092515
19,2.33759858684072,1.65886058962465,-3.99645917646537
19.2,2.16852864707464,1.45207796508633,-3.62060661216097
19.4,2.10017178920506,1.20516712264467,-3.30533891184974
19.6,2.02277608638908,0.878446393760646,-2.90122248014972
19.8,1.89119938737953,0.624866141315064,-2.51606552869459
20,1.80458778517979,0.389419758267797,-2.19400754344758
20.2,1.8260356150088,0.0892093285342115,-1.91524494354301
20.4,1.8238872764657,-0.257283356455635,-1.56660392001007
20.6,1.80225619350317,-0.567433238886547,-1.23482295461662
20.8,1.80248261546831,-0.825456334535111,-0.977026280933196
21,1.91292436322879,-1.15494862361914,-0.75797573960965
21.2,2.00943178927044,-1.51674126497838,-0.492690524292056
21.4,2.06262493640324,-1.85026339307088,-0.212361543332352
21.6,2.14263477767307,-2.09802671787834,-0.0446080597947245
21.8,2.3278896368881,-2.41709506672438,0.0892054298362779
22,2.530817604941,-2.79052672764319,0.259709122702192
22.2,2.63379582451221,-3.12121903768136,0.487423213169152
22.4,2.76819211696456,-3.35291468623645,0.584722569271887
22.6,2.99139363650263,-3.60288818420312,0.611494547700489
22.8,3.29394107340149,-3.97369512813323,0.67975405473174
23,3.47261746498751,-4.29693778227856,0.824320317291051
23.2,3.6211499948219,-4.52243990845214,0.901289913630241
23.4,3.87196130906584,-4.68065305761178,0.80869174854594
23.6,4.23345828043262,-4.99699499812871,0.763536717696096
23.8,4.51952283606382,-5.32080270994883,0.801279873885015
24,4.6435319825469,-5.50867956471571,0.86514758216881
24.2,4.9324892798511,-5.62906666662495,0.696577386773845
24.4,5.26966703435932,-5.7849153224436,0.515248288084276
24.6,5.63178613972232,-6.09696669335807,0.465180553635743
24.8,5.80833150219591,-6.27345099524125,0.465119493045338
25,6.02903510344853,-6.35050318923475,0.321468085786218
25.2,6.38768977243678,-6.38943768011933,0.00174790768254951
25.4,6.72862814771195,-6.57500566143893,-0.15362248627302
25.6,6.95374323684324,-6.75326297606677,-0.200480260776473
25.8,7.09143880479881,-6.77233970991462,-0.319099094884186
26,7.40654054440306,-6.72392150700974,-0.682619037393325
26.2,7.76224736157815,-6.75159284009501,-1.01065452148314
26.4,8.00279315911632,-6.89606925567747,-1.10672390343885
26.6,8.09828580457134,-6.88807963475874,-1.2102061698126
26.7999999999999,8.28864627935492,-6.77800239675075,-1.51064388260416
26.9999999999999,8.6480432364246,-6.67117322295109,-1.97687001347351
27.1999999999999,8.85817853160236,-6.67035315494816,-2.1878253766542
27.3999999999999,8.98322437233877,-6.72434609794043,-2.25887827439835
27.5999999999999,9.02683463389688,-6.53019611360015,-2.49663852029673
27.7999999999999,9.27952089270403,-6.32915800861975,-2.95036288408427
27.9999999999999,9.53463643988876,-6.199293621554,-3.33534281833476
28.1999999999999,9.62917301928836,-6.21436099011227,-3.4148120291761
28.3999999999999,9.6234407732649,-6.03925534163382,-3.58418543163108
28.5999999999999,9.70056769089537,-5.74420576997972,-3.95636192091565
28.7999999999999,9.89844143791539,-5.49205585506068,-4.40638558285471
28.9999999999999,9.9741410054373,-5.39512295572448,-4.57901804971282
29.1999999999999,9.9870415292296,-5.33054561805852,-4.65649591117108
29.3999999999999,9.9203027141715,-4.97110162562097,-4.94920108855053
29.5999999999999,9.93470181353096,-4.60745033428873,-5.32725147924223
29.7999999999999,10.0089340164136,-4.38692784772208,-5.62200616869153
29.9999999999999,10.0012382131561,-4.34302370777075,-5.65821450538535
30.1999999999999,9.88242538576078,-4.05044601137777,-5.83197937438302
30.3999999999999,9.69459780946666,-3.56824296124486,-6.1263548482218
30.5999999999999,9.68036865237127,-3.25841962299808,-6.4219490293732
30.7999999999999,9.67225309213077,-3.14816136622925,-6.52409172590152
30.9999999999999,9.5384379073378,-2.99744596733517,-6.54099194000263
31.1999999999999,9.25201241078107,-2.50572080766064,-6.74629160312043
31.3999999999999,9.05508200887494,-2.08539561374688,-6.96968639512805
31.5999999999999,9.04840389679833,-1.91076312645179,-7.13764077034655
31.7999999999999,8.90554786478194,-1.81826186066624,-7.0872860041157
31.9999999999999,8.60821082943397,-1.46382648003715,-7.14438434939683
32.1999999999999,8.26912318658744,-0.95980894750105,-7.30931423908639
32.3999999999999,8.16437346856759,-0.719111185089902,-7.44526228347769
32.5999999999999,8.05717468989234,-0.626202879485793,-7.43097181040654
32.7999999999999,7.72255519633023,-0.437289718755838,-7.2852654775744
32.9999999999999,7.36111413020889,0.0110309447332242,-7.37214507494211
33.1999999999999,7.10654007791039,0.349902939060297,-7.45644301697069
33.3999999999999,7.01074305438465,0.441949220210313,-7.45269227459497
33.5999999999999,6.7067968908141,0.545272190360222,-7.25206908117433
33.7999999999999,6.32809766467008,0.834832979463269,-7.16293064413335
33.9999999999999,5.98090711354202,1.21504922919567,-7.1959563427377
34.1999999999999,5.81879657943467,1.33814216088309,-7.15693874031775
34.3999999999999,5.61297258197599,1.3772958367308,-6.99026841870678
34.5999999999999,5.18202172687442,1.53930795747788,-6.7213296843523
34.7999999999999,4.82396175999927,1.84167891162355,-6.66564067162281
34.9999999999999,4.5912682715735,2.02475438275497,-6.61602265432848
35.1999999999999,4.43689909819907,2.0051211619263,-6.44202026012537
35.3999999999999,4.06153063623804,2.06996940484766,-6.1315000410857
35.5999999999999,3.65332506630283,2.25120849293773,-5.90453355924056
35.7999999999999,3.41845804107776,2.4418063810154,-5.86026442209316
35.9999999999999,3.2800504898891,2.40683256296614,-5.68688305285524
36.1999999999999,3.0247073137775,2.36546360896425,-5.39017092274175
36.3999999999999,2.62307545353816,2.44975292372565,-5.07282837726381
36.5999999999999,2.3686535384603,2.57676260007066,-4.94541613853096
36.7999999999999,2.24154227965581,2.56289908704585,-4.80444136670165
36.9999999999999,2.08485976235963,2.42233189166132,-4.50719165402095
37.1999999999999,1.7594033974215,2.40674728270499,-4.16615068012649
37.3999999999999,1.47399507800584,2.45145982262237,-3.92545490062821
37.5999999999999,1.37913614721306,2.43860685496013,-3.81774300217319
37.7999999999999,1.28429745416973,2.25891622588777,-3.5432136800575
37.9999999999999,1.07643380140284,2.13225822047063,-3.20869202187347
38.1999999999999,0.811746864153039,2.11915016985487,-2.93089703400791
38.3999999999999,0.709637650966184,2.06135172802617,-2.77098937899236
38.5999999999999,0.676906347905615,1.8957751363095,-2.57268148421511
38.7999999999999,0.567907451312571,1.68141587083355,-2.24932332214612
38.9999999999999,0.367905882944837,1.59651327468969,-1.96441915763452
39.1999999999999,0.269362564428192,1.52501837499467,-1.79438093942286
39.3999999999999,0.297610161383478,1.34340295053255,-1.64101311191603
39.5999999999999,0.265234272452855,1.08847698885922,-1.35371126131207
39.7999999999999,0.149238533213742,0.925659316530783,-1.07489784974452
39.9999999999999,0.0785145962419114,0.833715144797587,-0.912229741039499
40.1999999999999,0.143585464786824,0.647942236756135,-0.791527701542959
40.3999999999999,0.193539883800777,0.382925740179243,-0.57646562398002
40.5999999999999,0.15879300865366,0.159660411333152,-0.318453419986812
40.7999999999999,0.121874933815548,0.0413263713475311,-0.163201305163079
40.9999999999999,0.20976332129832,-0.126870391632999,-0.0828929296653205
41.1999999999999,0.345995016334126,-0.39732078515784,0.0513257688237135
41.3999999999999,0.380200360872976,-0.659135409604111,0.278935048731135
41.5999999999999,0.382828302316622,-0.801824084078263,0.418995781761641
41.7999999999999,0.491385519272101,-0.941472420409498,0.450086901137397
41.9999999999999,0.690113034464279,-1.20081680049551,0.510703766031227
42.1999999999999,0.798912072190596,-1.47327863540989,0.674366563219295
42.3999999999999,0.838767444228655,-1.63624377746165,0.797476333232996
42.5999999999999,0.94818521448455,-1.73575426316077,0.78756904867622
42.7999999999999,1.18100757115544,-1.94688838950945,0.765880818354008
42.9999999999999,1.37219162314579,-2.21558479929118,0.843393176145387
43.1999999999999,1.44331976120173,-2.40106631440989,0.957746553208164
43.3999999999998,1.55170103146043,-2.46899820053707,0.917297169076644
43.5999999999998,1.78724374741131,-2.60363278640757,0.81638903899626
43.7999999999998,2.05639370273325,-2.86126122613838,0.804867523405135
43.9999999999998,2.17169238651472,-3.0498558148916,0.878163428376879
44.1999999999998,2.26327978199996,-3.10392376435646,0.840643982356498
44.3999999999998,2.47743436374568,-3.14268638584546,0.665252022099784
44.5999999999998,2.78193284739988,-3.3405780117672,0.558645164367321
44.7999999999998,2.96732180417456,-3.5335144916159,0.566192687441339
44.9999999999998,3.02671815252776,-3.58156980997799,0.554851657450224
45.1999999999998,3.20474919691113,-3.55015964084578,0.345410443934655
45.3999999999998,3.49527994330556,-3.6380851018273,0.142805158521738
45.5999999999998,3.74486869390913,-3.83144830733183,0.0865796134226988
45.7999999999998,3.80250645920093,-3.87148634763575,0.0689798884348281
45.9999999999998,3.89883094629668,-3.79348893312433,-0.105342013172355
46.1999999999998,4.15692963630756,-3.75568592720974,-0.401243709097822
46.3999999999998,4.42800115710831,-3.88701683819331,-0.540984318914998
46.5999999999998,4.5374327818493,-3.95266810190524,-0.584764679944059
46.7999999999998,4.53901572084677,-3.83281184080868,-0.706203880038089
46.9999999999998,4.73102813258231,-3.70085285697388,-1.03017527560843
47.1999999999998,4.99294581357988,-3.71309183774062,-1.27985397583926
47.3999999999998,5.1439915708164,-3.80089651175651,-1.34309505905989
47.5999999999998,5.10710114076154,-3.67589525902074,-1.4312058817408
47.7999999999998,5.16223512139825,-3.46579332484402,-1.69644179655423
47.9999999999998,5.39617613252136,-3.35668511691665,-2.03949101560471
48.1999999999998,5.56109826385288,-3.40219847407568,-2.1588997897772
48.3999999999998,5.55682327281663,-3.33974673980776,-2.21707653300888
48.5999999999998,5.48033271340135,-3.07217381347591,-2.40815889992545
48.7999999999998,5.61696561456396,-2.8642284974835,-2.75273711708046
48.9999999999998,5.79461046008942,-2.81834691367725,-2.97626354641217
49.1999999999998,5.80310700994792,-2.80705176493452,-2.9960552450134
49.3999999999998,5.65926532113094,-2.55494880367585,-3.10431651745508
49.5999999999998,5.63784041973857,-2.25364223637012,-3.38419818336845
49.7999999999998,5.78932435421289,-2.1136907402566,-3.67563361395629
49.9999999999998,5.80828035747999,-2.08835210038181,-3.71992825709817
50.1999999999998,5.66212960463331,-1.92307641875008,-3.73905318588324
50.3999999999998,5.49686975628133,-1.55842938171508,-3.93844037456625
50.5999999999998,5.5396412776468,-1.32640435314848,-4.21323692449833
50.7999999999998,5.60041422578311,-1.25625721367723,-4.34415701210588
50.9999999999998,5.44314891074609,-1.16092146001564,-4.28222745073045
51.1999999999998,5.20064780084384,-0.836013058295354,-4.36463474254849
51.3999999999998,5.09018587994605,-0.499298063982718,-4.59088781596333
51.5999999999998,5.14090242949996,-0.380681896323781,-4.76022053317618
51.7999999999998,5.0280069382847,-0.319477852073026,-4.70852908621168
51.9999999999998,4.7615044178952,-0.0978812626815314,-4.66362315521366
52.1999999999998,4.53714424486741,0.276483735901617,-4.81362798076903
52.3999999999998,4.48318351406409,0.475723165582137,-4.95890667964623
52.5999999999998,4.4469068372925,0.512827387053788,-4.95973422434629
52.7999999999998,4.17742256829136,0.637026219540814,-4.81444878783217
52.9999999999998,3.88066985423249,0.952378319042169,-4.83304817327466
53.1999999999998,3.72664748099688,1.23060458122766,-4.95725206222453
53.3999999999998,3.68635822955901,1.27231715869243,-4.95867538825144
53.5999999999998,3.47737155768664,1.32096907630091,-4.79834063398756
53.7999999999998,3.13726516846242,1.53454153037845,-4.67180669884088
53.9999999999998,2.90967045054602,1.82536116618193,-4.73503161672795
54.1999999999998,2.81701112218872,1.91843478757682,-4.73544590976554
54.3999999999998,2.69337028534483,1.89119789610965,-4.58456818145448
54.5999999999998,2.35201029764973,2.00829041585847,-4.3603007135082
54.7999999999998,2.05680862928656,2.24504355451567,-4.30185218380223
54.9999999999998,1.93052664396668,2.39157794371851,-4.32210458768519
55.1999999999998,1.84410996405601,2.33216735414197,-4.17627731819799
55.3999999999998,1.56792033282185,2.35029757517258,-3.91821790799443
55.5999999999998,1.23066732282759,2.50801722083224,-3.73868454365983
55.7999999999998,1.06932421124217,2.65234384385074,-3.72166805509291
55.9999999999998,0.996305572927238,2.61579640167805,-3.61210197460528
56.1999999999998,0.824654497992243,2.52444697233863,-3.34910147033088
56.3999999999998,0.502535229879683,2.59255038541506,-3.09508561529475
56.5999999999998,0.2896884125197,2.70081902006402,-2.99050743258372
56.7999999999998,0.236128832369791,2.68732389105025,-2.92345272342004
56.9999999999998,0.139400533896325,2.53606381314858,-2.6754643470449
57.1999999999998,-0.109868060226961,2.49243645016044,-2.38256838993348
57.3999999999998,-0.352460935326303,2.55852567959246,-2.20606474426616
57.5999999999998,-0.407176548850632,2.53843075938486,-2.13125421053422
57.7999999999998,-0.436943923178089,2.37311443840572,-1.93617051522763
57.9999999999998,-0.59687206461442,2.22121404031754,-1.62434197570312
58.1999999999998,-0.819152564978453,2.2190703859461,-1.39991782096765
58.3999999999998,-0.895908761188532,2.20015919225994,-1.30425043107141
58.5999999999998,-0.870457949068894,2.03492955244951,-1.16447160338061
58.7999999999998,-0.939100281002614,1.81626284875796,-0.877162567755349
58.9999999999998,-1.11095126190922,1.73089566051803,-0.619944398608809
59.1999999999998,-1.20157401680924,1.70437534580809,-0.502801328998846
59.3999999999998,-1.13794938521329,1.54969421984821,-0.411744834634922
59.5999999999998,-1.11559513739552,1.30223927861277,-0.186644141217254
59.7999999999997,-1.21669608705328,1.13296770072875,0.0837283863245322
59.9999999999997,-1.29443688100879,1.07582399508857,0.218612885920212
60.1999999999997,-1.22267353894171,0.950558150974637,0.272115387967077
60.3999999999997,-1.11407250490681,0.690456837691583,0.423615667215225
60.5999999999997,-1.1267559942084,0.458466196579042,0.668289797629356
60.7999999999997,-1.18491336907754,0.364418377161365,0.820494991916179
60.9999999999997,-1.10654426047224,0.262365264140005,0.844178996332235
61.1999999999997,-0.935722324862782,0.0233943768068858,0.912327948055896
61.3999999999997,-0.863240506619912,-0.244919531629669,1.10816003824958
61.5999999999997,-0.880191679256895,-0.383957294426118,1.26414897368301
61.7999999999997,-0.811457354488119,-0.465336039971435,1.27679339445955
