"Time [ms]","Current(PhaseA) [A]","Current(PhaseB) [A]","Current(PhaseC) [A]"
0,0,0,0
0.2,0.00650696734577356,-0.898284037640571,0.891777070294797
0.4,0.0532665648237437,-1.78208932185109,1.72882275702734
0.6,0.161291192073065,-2.64554734936313,2.48425615729007
0.8,0.39136063111764,-3.56255939100609,3.17119875988845
1,0.669166881368305,-4.5119867621974,3.8428198808291
1.2,0.92228130525852,-5.45434477653167,4.53206347127315
1.4,1.23715532093044,-6.29073222494349,5.05357690401305
1.6,1.66573470904335,-7.14338328093692,5.47764857189357
1.8,2.23936698920728,-8.1144040148974,5.87503702569012
2,2.67981576747871,-8.99963078396956,6.31981501649085
2.2,3.11951838165476,-9.89132412048958,6.77180573883482
2.4,3.71077139585562,-10.7338744571164,7.02310306126078
2.6,4.36988150773723,-11.5936191731674,7.22373766543021
2.8,5.09128086704369,-12.4154384555721,7.32415758852845
3,5.69056523112942,-13.1670394876677,7.47647425653833
3.2,6.31983324944224,-14.0037229131182,7.68388966367595
3.4,7.15183869288619,-14.7958783829732,7.64403969008703
3.6,7.97365941932678,-15.5247143353315,7.55105491600468
3.8,8.78014241155735,-16.1412838226629,7.36114141110556
4,9.5336755666717,-16.7422890164933,7.20861344982158
4.2,10.4349965839131,-17.4951046369462,7.06010805303312
4.4,11.4474375198197,-18.1459939240204,6.69855640420067
4.6,12.3082118394692,-18.5894266098401,6.28121477037091
4.8,13.1268225591083,-18.9067961776738,5.77997361856556
5,13.9740452195171,-19.2015446221092,5.22749940259209
5.2,14.8582604466006,-19.5852291529289,4.72696870632824
5.4,15.788142371931,-19.9174316544279,4.12928928249691
5.6,16.5385296875395,-20.0441246640851,3.50559497654563
5.8,17.1585562307822,-20.0722724235135,2.91371619273122
6,17.8090598303869,-20.0540920193586,2.24503218897169
6.2,18.5000830342084,-20.0788318506998,1.57874881649132
6.4,19.194264380316,-20.128504898472,0.934240518155985
6.6,19.84654870894,-20.0245969186695,0.178048209729479
6.8,20.3788918899753,-19.7473801404473,-0.631511749527945
7,20.8540685700125,-19.4430717264656,-1.41099684354687
7.2,21.327835977933,-19.1292318286577,-2.19860414927537
7.4,21.8028652044176,-18.7945373508679,-3.00832785354972
7.59999999999999,22.2596021979071,-18.4604560272028,-3.79914617070434
7.79999999999999,22.6065818125327,-17.976773648497,-4.62980816403566
7.99999999999999,22.8810915992638,-17.3393153394503,-5.54177625981351
8.2,23.0975856792184,-16.6491631320159,-6.44842254720246
8.4,23.2277308901574,-15.9915365087464,-7.23619438141097
8.6,23.3364623556155,-15.3667611075374,-7.96970124807808
8.8,23.4223268380008,-14.6800492906962,-8.74227754730452
9,23.4327190356939,-13.9270209677936,-9.5056980679003
9.2,23.2847991369113,-13.0818970654202,-10.2029020714911
9.4,23.0584802506931,-12.1822870961622,-10.876193154531
9.6,22.7401651960444,-11.2624316014082,-11.4777335946362
9.8,22.3980010391351,-10.4542168516172,-11.9437841875179
10,22.0313153126346,-9.66069976943884,-12.3706155431958
10.2,21.6156491982391,-8.79390528292382,-12.8217439153152
10.4,21.1082899678113,-7.82056621161789,-13.2877237561935
10.6,20.4950126261248,-6.82733952873373,-13.667673097391
10.8,19.7871211839922,-5.83834177764865,-13.9487794063435
11,19.0438611156824,-4.8743573846838,-14.1695037309985
11.2,18.2647929713131,-3.95458858151674,-14.3102043897963
11.4,17.4982161384529,-3.11917514665507,-14.3790409917978
11.6,16.7241216982242,-2.33964382760599,-14.3844778706182
11.8,15.93327240296,-1.54548642217418,-14.3877859807858
12,15.1000509875564,-0.732089594536207,-14.3679613930202
12.2,14.2048159871651,0.1243341167602,-14.3291501039253
12.4,13.2606242070392,0.965808981243531,-14.2264331882827
12.6,12.2810530974099,1.75001131069582,-14.0310644081057
12.8,11.3279448858451,2.42381971671265,-13.7517646025577
13,10.4411293077217,2.97345888135886,-13.4145881890805
13.2,9.60630052791068,3.42982799830189,-13.0361285262126
13.4,8.79215352315665,3.82779595734479,-12.6199494805014
13.6,7.90303244549205,4.24719561848023,-12.1502280639723
13.8,6.95857537944593,4.6830673996259,-11.6416427790718
14,5.99078442821384,5.09794665713262,-11.0887310853465
14.2,5.04022040849736,5.46845387124241,-10.5086742797398
14.4,4.13874567203075,5.78914821304786,-9.92789388507861
14.6,3.30721935433147,6.02539439113015,-9.33261374546162
14.8,2.55250877062546,6.1743861582068,-8.72689492883226
15,1.84625474070586,6.22281732279205,-8.06907206349791
15.2,1.1605409019378,6.20405631781544,-7.36459721975324
15.4,0.471145273097266,6.14787498136663,-6.6190202544639
15.6,-0.243354383221013,6.07624486666604,-5.83289048344503
15.8,-0.977694769184336,5.99763990442581,-5.01994513524147
16,-1.68412229512616,5.89184696921757,-4.20772467409141
16.2,-2.32551788932265,5.7447466836706,-3.41922879434795
16.4,-2.8683210807772,5.52910072423488,-2.66077964345769
16.6,-3.31379247320424,5.23944076531201,-1.92564829210777
16.8,-3.69185569985024,4.87305127776308,-1.18119557791285
17,-4.04077072324538,4.43188201244749,-0.391111289202104
17.2,-4.38396536357839,3.92716390526093,0.456801458317464
17.4,-4.69498498701025,3.38133675896197,1.31364822804828
17.6,-4.97019316683438,2.82288265246228,2.1473105143721
17.8,-5.184404534895,2.26375927968274,2.92064525521226
18,-5.32399132519584,1.68606828284158,3.63792304235426
18.2,-5.37874023794024,1.05378006988235,4.32496016805789
18.4,-5.36840355418761,0.322860772776571,5.04554278141104
18.6,-5.32173302356486,-0.451461615827565,5.77319463939243
18.8,-5.23699626369426,-1.23890189228157,6.47589815597583
19,-5.12512533089765,-2.01052853729696,7.13565386819461
19.2,-4.96619350035591,-2.77914575236813,7.74533925272404
19.4,-4.7180973109732,-3.57533016256234,8.29342747353554
19.6,-4.39426598316059,-4.4124662354036,8.80673221856419
19.8,-4.03344713605752,-5.27783065704691,9.31127779310443
20,-3.63975623814913,-6.17519351097957,9.8149497491287
20.2,-3.16805107877597,-7.08857924834066,10.2566303271166
20.4,-2.62834924775801,-7.96209011829472,10.5904393660527
20.6,-2.06176475026327,-8.7572815620105,10.8190463122738
20.8,-1.45412170744196,-9.59057019682155,11.0446919042635
21,-0.772434512079199,-10.4761636242942,11.2485981363734
21.2,-0.0528523359556067,-11.3398605278053,11.3927128637609
21.4,0.674862866493363,-12.1477649555379,11.4729020890445
21.6,1.43689990348476,-12.9322083962389,11.4953084927542
21.8,2.29049197468075,-13.6914408552255,11.4009488805448
22,3.2395956854269,-14.3886804488358,11.1490847634089
22.2,4.19162144745782,-15.0511049122604,10.8594834648026
22.4,5.15046289220286,-15.7249700639653,10.5745071717625
22.6,6.10664688328073,-16.2595523485842,10.1529054653035
22.8,6.98047964330138,-16.6844957022208,9.70401605891944
23,7.86727566483369,-17.0802161959229,9.21294053108925
23.2,8.9295058249133,-17.5342448498336,8.60473902492027
23.4,9.93836069837463,-17.9618132522008,8.02345255382614
23.6,10.8679428826115,-18.3296274857073,7.46168460309575
23.8,11.8126617731114,-18.6025887355479,6.78992696243647
24,12.6793115389275,-18.7522691009303,6.07295756200288
24.2,13.5510740534811,-18.9006639174952,5.34958986401409
24.4,14.5122323080298,-19.0790194637611,4.56678715573129
24.6,15.3433309932225,-19.144137844983,3.80080685176053
24.8,16.0400256323265,-19.0746410190796,3.03461538675311
25,16.7131088157935,-18.8593462619343,2.14623744614073
25.2,17.363223588307,-18.5839881518245,1.22076456351754
25.4,18.1228914701099,-18.4445773826692,0.321685912559214
25.6,18.8169093075331,-18.1989927422981,-0.617916565235035
25.8,19.2782087115197,-17.7558422765653,-1.5223664349544
26,19.61815700941,-17.1541042124171,-2.4640527969929
26.2,19.9831234618229,-16.4153138521425,-3.56780960968042
26.4,20.4556257883836,-15.8035481452538,-4.65207764312987
26.6,20.8042426482145,-15.127142206557,-5.67710044165754
26.7999999999999,20.8414916651614,-14.3465066603805,-6.49498500478089
26.9999999999999,20.9220024369204,-13.5345405718862,-7.38746186503424
27.1999999999999,21.1888483492631,-12.7729843292178,-8.41586402004525
27.3999999999999,21.3825322774732,-12.139651331962,-9.24288094551118
27.5999999999999,21.2701300306433,-11.3509787618291,-9.91915126881424
27.7999999999999,21.1177384313796,-10.5817780993875,-10.5359603319921
27.9999999999999,21.1385359436391,-9.6699338755488,-11.4686020680903
28.1999999999999,21.0084444942426,-8.83979018902621,-12.1686543052164
28.3999999999999,20.6278890249552,-7.92231437451504,-12.7055746504402
28.5999999999999,20.1795835239948,-7.07539751845039,-13.1041860055444
28.7999999999999,20.0074300849,-6.22849238619961,-13.7789376987004
28.9999999999999,19.650879759712,-5.41063169693286,-14.2402480627791
29.1999999999999,19.0767700696013,-4.65645221940167,-14.4203178501996
29.3999999999999,18.3823085365418,-3.84080149877628,-14.5415070377655
29.5999999999999,17.8557869820375,-2.91770196178537,-14.9380850202521
29.7999999999999,17.2065444556021,-2.13982987075163,-15.0667145848505
29.9999999999999,16.4970314266486,-1.47439893713915,-15.0226324895095
30.1999999999999,15.984394718744,-0.79252312239669,-15.1918715963473
30.3999999999999,15.5143183606315,-0.00603619493120433,-15.5082821657003
30.5999999999999,14.9209533906531,0.511201501728401,-15.4321548923815
30.7999999999999,14.2592109299028,1.03792230955937,-15.2971332394621
30.9999999999999,13.6625754137913,1.67525686282898,-15.3378322766203
31.1999999999999,12.8669279574576,2.33892978880308,-15.2058577462607
31.3999999999999,12.2463820217933,2.69035439461542,-14.9367364164087
31.5999999999999,11.7422909024917,3.12190271714494,-14.8641936196367
31.7999999999999,11.1919087475016,3.65607738725018,-14.8479861347518
31.9999999999999,10.6179851869465,3.92550272978158,-14.5434879167281
32.1999999999999,10.2152185175108,4.05714903336807,-14.2723675508789
32.3999999999999,9.6158476372822,4.39143173485344,-14.0072793721356
32.5999999999999,8.86815433456938,4.80108721483024,-13.6692415493996
32.7999999999999,8.50890718616698,4.88877249432524,-13.3976796804922
32.9999999999999,8.00644023959786,5.20519265267462,-13.2116328922725
33.1999999999999,7.4069187431354,5.63816753582636,-13.0450862789618
33.3999999999999,6.96531027080741,5.80710531132043,-12.7724155821278
33.5999999999999,6.63857280379602,5.86603519436658,-12.5046079981626
33.7999999999999,5.95633000517981,6.10453652646338,-12.0608665316432
33.9999999999999,5.38625049790126,6.39935590210051,-11.7856064000018
34.1999999999999,5.13835553752072,6.39390522437476,-11.5322607618955
34.3999999999999,4.67188687875518,6.57215090326853,-11.2440377820237
34.5999999999999,4.10457458055172,6.84395306597265,-10.9485276465244
34.7999999999999,3.77541561227966,6.99913962460849,-10.7745552368881
34.9999999999999,3.60003644814265,6.91167443833436,-10.511710886477
35.1999999999999,2.99844207894319,7.02825640561909,-10.0266984845623
35.3999999999999,2.43401630488224,7.20083901453725,-9.6348553194195
35.5999999999999,2.12863427446058,7.23375801746295,-9.36239229192352
35.7999999999999,1.85350707679765,7.15766581590268,-9.01117289270034
35.9999999999999,1.21870157057768,7.26602126174625,-8.48472283232393
36.1999999999999,0.727215217799743,7.33756085002694,-8.06477606782668
36.3999999999999,0.466766255517914,7.33696386852039,-7.8037301240383
36.5999999999999,0.185362804636876,7.14493329921853,-7.3302961038554
36.7999999999999,-0.353967287069755,7.10899869246704,-6.75503140539728
36.9999999999999,-0.840477539371088,7.13169698482457,-6.29121944545348
37.1999999999999,-1.05176999621087,7.02948399109995,-5.97771399488908
37.3999999999999,-1.31150090191303,6.79117675732367,-5.47967585541063
37.5999999999999,-1.72287300269283,6.62624861157832,-4.90337560888548
37.7999999999999,-2.15842047805259,6.56965685406564,-4.41123637601305
37.9999999999999,-2.3510801523371,6.41377933730357,-4.06269918496647
38.1999999999999,-2.51056204273348,6.11177545910914,-3.60121341637566
38.3999999999999,-2.76857670046687,5.73030150321107,-2.9617248027442
38.5999999999999,-3.08120482380273,5.49124393631465,-2.41003911251192
38.7999999999999,-3.26778299626797,5.26846307686838,-2.00068008060041
38.9999999999999,-3.2526062132572,4.871048668717,-1.6184424554598
39.1999999999999,-3.29502282880584,4.39348797868938,-1.09846514988354
39.3999999999999,-3.42210683914435,3.94886648673414,-0.526759647589788
39.5999999999999,-3.52690443782316,3.62091975028987,-0.0940153124667065
39.7999999999999,-3.51672936230808,3.27394164994273,0.242787712365347
39.9999999999999,-3.38008576004024,2.77569943347353,0.604386326566711
40.1999999999999,-3.28411267885551,2.23143828006468,1.05267439879083
40.3999999999999,-3.27898645668181,1.75814988601948,1.52083657066233
40.5999999999999,-3.21691801524416,1.36554745398049,1.85137056126367
40.7999999999999,-3.01384295391433,0.950211763776714,2.06363119013762
40.9999999999999,-2.72696167751101,0.41336003573012,2.31360164178089
41.1999999999999,-2.46832554470338,-0.160936309356268,2.62926185405965
41.3999999999999,-2.2790281347335,-0.639598895757,2.9186270304905
41.5999999999999,-2.06632494129423,-1.03266613526381,3.09899107655804
41.7999999999999,-1.71691521085487,-1.44309434882028,3.16000955967515
41.9999999999999,-1.2951058075941,-1.93108855331336,3.22619436090746
42.1999999999999,-0.90545338933534,-2.45866056084901,3.36411395018435
42.3999999999999,-0.588745815998429,-2.90182940085514,3.49057521685357
42.5999999999999,-0.283767766561381,-3.21714618984721,3.50091395640859
42.7999999999999,0.144171284403627,-3.539514874512,3.39534359010837
42.9999999999999,0.669591087106153,-3.9424244395855,3.27283335247935
43.1999999999998,1.12751891361029,-4.35680379922009,3.2292848856098
43.3999999999998,1.48817499975425,-4.69937042741877,3.21119542766453
43.5999999999998,1.83942722869694,-4.8961623189564,3.05673509025946
43.7999999999998,2.26558236252357,-5.07415230015019,2.80856993762662
43.9999999999998,2.80008665131228,-5.35468424935475,2.55459759804247
44.1999999999998,3.28608055375759,-5.63742711126626,2.35134655750867
44.3999999999998,3.61443762157001,-5.82275936310251,2.2083217415325
44.5999999999998,3.93970639999383,-5.88422889090453,1.9445224909107
44.7999999999998,4.375170167383,-5.89624693107229,1.52107676368929
44.9999999999998,4.87355950978404,-5.99821808373659,1.12465857395255
45.1999999999998,5.30618400780416,-6.11275367372482,0.806569665920654
45.3999999999998,5.54072085690461,-6.08029253050874,0.539571673604132
45.5999999999998,5.80092564692384,-5.96347009890435,0.162544451980509
45.7999999999998,6.17042429619881,-5.80184477295107,-0.368579523247741
45.9999999999998,6.51308506337843,-5.71477112259072,-0.798313940787706
46.1999999999998,6.76782383959409,-5.67770871336122,-1.09011512623287
46.3999999999998,6.87665126402125,-5.51663643229606,-1.36001483172519
46.5999999999998,7.05282763973892,-5.26974610223543,-1.78308153750349
46.7999999999998,7.34362562525004,-5.00601167425138,-2.33761395099866
46.9999999999998,7.54386226118796,-4.8569782021813,-2.68688405900665
47.1999999999998,7.61457270704053,-4.72252373153378,-2.89204897550675
47.3999999999998,7.5781415540782,-4.40141210254094,-3.17672945153726
47.5999999999998,7.68280036250937,-4.05976522256781,-3.62303513994156
47.7999999999998,7.85807051834616,-3.77900005958833,-4.07907045875783
47.9999999999998,7.87403427365045,-3.6149676284342,-4.25906664521625
48.1999999999998,7.77422162233107,-3.35546119369403,-4.41876042863705
48.3999999999998,7.66103594561181,-2.89557872801825,-4.76545721759357
48.5999999999998,7.69525419203413,-2.51814647989909,-5.17710771213504
48.7999999999998,7.66790874774677,-2.26829908470828,-5.39960966303849
48.9999999999998,7.47430204125452,-2.04849550808327,-5.42580653317125
49.1999999999998,7.21435219200128,-1.58901039575076,-5.62534179625053
49.3999999999998,7.05882446679575,-1.15932286984358,-5.89950159695217
49.5999999999998,7.02154512339119,-0.919355182960462,-6.10218994043073
49.7999999999998,6.86297377916795,-0.77928149868389,-6.08369228048406
49.9999999999998,6.57393872736904,-0.410980982181588,-6.16295774518745
50.1999999999998,6.3261451035926,0.0646796746945412,-6.39082477828714
50.3999999999998,6.27841918816582,0.287678785456051,-6.56609797362187
50.5999999999998,6.11398640954803,0.408842466436807,-6.52282887598484
50.7999999999998,5.81510157748447,0.66063618908903,-6.4757377665735
50.9999999999998,5.51264410407426,1.11499087455242,-6.62763497862668
51.1999999999998,5.39032846499024,1.36114761081923,-6.75147607580947
51.3999999999998,5.29975985269818,1.43926146672631,-6.73902131942449
51.5999999999998,4.93950168056951,1.63459030946087,-6.57409199003037
51.7999999999998,4.59512680641181,2.03186385150033,-6.62699065791213
51.9999999999998,4.42109877795222,2.28895793387068,-6.71005671182289
52.1999999999998,4.32095427923868,2.32274101355256,-6.64369529279123
52.3999999999998,3.9770132640542,2.44120002900447,-6.41821329305867
52.5999999999998,3.60008015555435,2.74459677410368,-6.34467692965803
52.7999999999998,3.38811158134406,3.02748712428049,-6.41559870562455
52.9999999999998,3.31089178833495,3.06696148766733,-6.37785327600228
53.1999999999998,2.98192730952503,3.14077329165603,-6.12270060118105
53.3999999999998,2.56452116492511,3.39465130586486,-5.95917247078997
53.5999999999998,2.31330923714137,3.6866098384532,-5.99991907559456
53.7999999999998,2.1924311673872,3.73668987603237,-5.92912104341958
53.9999999999998,1.95487889540002,3.75205365948979,-5.70693255488981
54.1999999999998,1.51711824492703,3.93113290564752,-5.44825115057455
54.3999999999998,1.21242726216966,4.18191460569841,-5.39434186786807
54.5999999999998,1.06838046093299,4.29604402488839,-5.36442448582138
54.7999999999998,0.879963079965124,4.2151280459036,-5.09509112586872
54.9999999999998,0.485028931336722,4.28414941575125,-4.76917834708797
55.1999999999998,0.116810208787225,4.4671229894559,-4.58393319824312
55.3999999999998,-0.0571010125808241,4.57041323496846,-4.51331222238764
55.5999999999998,-0.204099398239318,4.48048679223369,-4.27638739399438
55.7999999999998,-0.491433338537781,4.40455660422943,-3.91312326569165
55.9999999999998,-0.894311089219144,4.48529747977095,-3.59098639055181
56.1999999999998,-1.14750984028702,4.57940254742263,-3.43189270713562
56.3999999999998,-1.2700962722703,4.52003201703679,-3.24993574476649
56.5999999999998,-1.4528826523471,4.30499035591825,-2.85210770357115
56.7999999999998,-1.7738321584067,4.21206049790287,-2.43822833949617
56.9999999999998,-2.08686019031624,4.23280359209039,-2.14594340177415
57.1999999999998,-2.2122232248132,4.16404150340095,-1.95181827858775
57.3999999999998,-2.28646766858715,3.95882214848776,-1.6723544799006
57.5999999999998,-2.46955331484748,3.70420837736924,-1.23465506252176
57.7999999999998,-2.73175081765086,3.56874205593324,-0.836991238282381
57.9999999999998,-2.93205359494674,3.51093167628213,-0.578878081335397
58.1999999999998,-2.9496258437011,3.30728834414917,-0.357662500448066
58.3999999999998,-2.94245857757837,2.97152064683852,-0.0290620692601484
58.5999999999998,-3.05613155961049,2.64456657449269,0.411564985117798
58.7999999999998,-3.20003598891864,2.42957874408027,0.770457244838377
58.9999999999998,-3.24205635657156,2.25478508614254,0.987271270429013
59.1999999999998,-3.14273831106743,1.94679587701614,1.19594243405129
59.3999999999998,-3.03777737936919,1.53487830817182,1.50289907119737
59.5999999999998,-3.03752356739996,1.16108990290113,1.87643366449884
59.7999999999997,-3.05985536177293,0.895398565100377,2.16445679667255
59.9999999999997,-2.96806143058369,0.663374520271205,2.30468691031249
60.1999999999997,-2.75125527984385,0.308849626994575,2.44240565284927
60.3999999999997,-2.53397597216622,-0.145120665425766,2.67909663759199
60.5999999999997,-2.4168916160741,-0.526315002388635,2.94320661846273
60.7999999999997,-2.32902879958284,-0.790165310080155,3.119194109663
60.9999999999997,-2.11023644517938,-1.04132794955906,3.15156439473844
61.1999999999997,-1.79987453666539,-1.3812015673248,3.18107610399019
61.3999999999997,-1.50666944807364,-1.80700177796367,3.31367122603731
61.5999999999997,-1.30003028435083,-2.16091373733047,3.4609440216813
61.7999999999997,-1.12575255631682,-2.37781156493148,3.50356412124829
61.9999999999997,-0.823616941122644,-2.5948695998158,3.41848654093844
