"Time [ms]","Current(PhaseA) [A]","Current(PhaseB) [A]","Current(PhaseC) [A]"
0,0,0,0
0.2,-0.0336166987649978,-0.868134759369098,0.901751458134096
0.4,-0.0220459961966919,-1.72904614183853,1.75109213803522
0.6,0.0559997054410489,-2.57669850473316,2.52069879929211
0.8,0.250086715539262,-3.47402804056178,3.22394132502252
1,0.496124366217583,-4.40855249172635,3.91242812550877
1.2,0.73544368641922,-5.3512318179497,4.61578813153048
1.4,1.05503202260105,-6.20115885315886,5.14612683055781
1.6,1.47652359812705,-7.05429061381617,5.57776701568912
1.8,2.03149584528801,-8.02280946336544,5.99131361807743
2,2.51743207237828,-8.94190767365832,6.42447560128004
2.2,3.03458494967684,-9.8710299543114,6.83644500463457
2.4,3.68942298741742,-10.736886675806,7.04746368838861
2.6,4.40941178356536,-11.6057826751426,7.19637089157725
2.8,5.18884923887124,-12.4270989791892,7.23824974031799
3,5.86880991563175,-13.172506645049,7.30369672941723
3.2,6.57685706957674,-13.9906210490233,7.41376397944651
3.4,7.4191207445168,-14.7778140206116,7.35869327609478
3.6,8.24225636654677,-15.501626125197,7.25936975865024
3.8,9.04634203637744,-16.1122205258852,7.06587848950772
4,9.81234433424355,-16.6989165899852,6.88657225574169
4.2,10.7326812591862,-17.4243420698749,6.6916608106887
4.4,11.7405382615355,-18.045196150234,6.30465788869846
4.6,12.5949494017738,-18.4540993775029,5.85914997572904
4.8,13.3965956593971,-18.7423376183778,5.34574195898066
5,14.2365145930195,-19.003443095861,4.76692850284149
5.2,15.1136909010169,-19.3582481293945,4.24455722837768
5.4,16.0244180517943,-19.6680983226762,3.64368027088194
5.6,16.7441316605445,-19.7492085211836,3.00507686063909
5.8,17.3241250088814,-19.7201628859146,2.39603787703318
6,17.9300766599988,-19.6304126123161,1.70033595231732
6.2,18.5031646808787,-19.4781181579149,0.974953477036181
6.4,19.1921598042755,-19.378838242236,0.186678437960587
6.6,19.8637910982537,-19.1550055250306,-0.708785573223089
6.8,20.3791113009023,-18.819345412362,-1.5597658885403
7,20.8600706980125,-18.5194753870958,-2.34059531091666
7.2,21.3499982394063,-18.2495788026441,-3.10041943676217
7.4,21.7988894105834,-17.9882976226019,-3.81059178798142
7.59999999999999,22.2126115635531,-17.6589659182541,-4.55364564529908
7.79999999999999,22.545911029058,-17.1569720925108,-5.38893893654724
7.99999999999999,22.7521726209564,-16.5744080835376,-6.17776453741878
8.2,22.8894053833668,-16.0348249471774,-6.85458043618948
8.4,23.045532737188,-15.5146027476354,-7.53092998955262
8.6,23.1182392548266,-14.8267818239802,-8.29145743084639
8.8,23.1635454200092,-14.1059074687989,-9.05763795121029
9,23.0944170392257,-13.3148079435972,-9.77960909562851
9.2,22.8899410288889,-12.4568293951403,-10.4331116337486
9.4,22.6902258645922,-11.7566482855696,-10.9335775790227
9.6,22.4879269664698,-11.1345024390311,-11.3534245274387
9.8,22.2736461258871,-10.4139923234259,-11.8596538024612
10,21.9169022292161,-9.55873429102219,-12.3581679381939
10.2,21.3994250746542,-8.64514040395887,-12.7542846706954
10.4,20.8362811066701,-7.75363161257769,-13.0826494940924
10.6,20.2020832338802,-6.89819750017291,-13.3038857337073
10.8,19.5498557442052,-6.14078696810927,-13.4090687760959
11,18.8814741229966,-5.37117956480033,-13.5102945581963
11.2,18.165269380245,-4.46508127769736,-13.7001881025476
11.4,17.3700687265107,-3.4568957668406,-13.9131729596701
11.6,16.5064051889961,-2.49216751930493,-14.0142376696912
11.8,15.6534676145144,-1.63321523342642,-14.020252381088
12,14.8266296415721,-0.879158794753694,-13.9474708468184
12.2,14.0511796359192,-0.233187815553456,-13.8179918203657
12.4,13.2966295947844,0.338466433695766,-13.6350960284801
12.6,12.5261610213844,0.908030099275532,-13.43419112066
12.8,11.7022646222189,1.5118286674345,-13.2140932896534
13,10.8083492156386,2.17315869770331,-12.9815079133419
13.2,9.87774337411299,2.7873481776983,-12.6650915518113
13.4,8.98289669613605,3.29927676101033,-12.2821734571464
13.6,8.16755622931099,3.66855696683127,-11.8361131961423
13.8,7.4229775888334,3.95045522171213,-11.3734328105455
14,6.69078225037234,4.17664214892648,-10.8674243992988
14.2,5.88819377853764,4.40920736077423,-10.2974011393119
14.4,5.05065637514893,4.64437695516879,-9.69503333031772
14.6,4.2164749180297,4.85502017264208,-9.07149509067178
14.8,3.44291376268942,5.04779694016453,-8.49071070285395
15,2.74052734161645,5.19047823007485,-7.9310055716913
15.2,2.11292489996326,5.26453319210248,-7.37745809206574
15.4,1.53183898540023,5.23295347610074,-6.76479246150097
15.6,0.97488393200421,5.10703005698135,-6.08191398898556
15.8,0.420869222602469,4.93540040147701,-5.35626962407948
16,-0.147030239988689,4.7478734406238,-4.60084320063511
16.2,-0.71665108518944,4.55394508317976,-3.83729399799032
16.4,-1.24516922965544,4.34437999408284,-3.0992107644274
16.6,-1.71376985582485,4.11078180900116,-2.39701195317631
16.8,-2.10731634660081,3.82678470440535,-1.71946835780454
17,-2.44017805409633,3.4803519587392,-1.04017390464287
17.2,-2.72949231670791,3.06570364279986,-0.336211326091949
17.4,-2.99818096813606,2.58044883131085,0.417732136825212
17.6,-3.248349719356,2.0445095108655,1.2038402084905
17.8,-3.4823893549401,1.49386709005081,1.98852226488928
18,-3.67950561646829,0.937794181860087,2.74171143460821
18.2,-3.81700903967522,0.384291021785705,3.43271801788951
18.4,-3.89125530822804,-0.182818865957911,4.07407417418595
18.6,-3.89959639801329,-0.796900214142342,4.69649661215563
18.8,-3.84807013909966,-1.48990749630131,5.33797763540096
19,-3.7323540536452,-2.23068797506505,5.96304202871025
19.2,-3.57840998514761,-2.98431358527688,6.56272357042449
19.4,-3.41242567773014,-3.70759016872474,7.12001584645488
19.6,-3.22270737950497,-4.42459435988994,7.64730173939491
19.8,-2.95037558623952,-5.16437008958292,8.11474567582243
20,-2.56136797306687,-5.97672825480855,8.53809622787541
20.2,-2.1158498667782,-6.81215194231064,8.92800180908884
20.4,-1.65060252289896,-7.64896619677747,9.29956871967643
20.6,-1.15097623787616,-8.49604768269479,9.64702392057096
20.8,-0.574822761816428,-9.33756224317187,9.91238500498829
21,0.0799292134587877,-10.1173769435609,10.0374477301021
21.2,0.789988852680996,-10.8612716423687,10.0712827896877
21.4,1.53260759074624,-11.5953892545865,10.0627816638403
21.6,2.32566416434071,-12.3268117820226,10.0011476176819
21.8,3.13623707137905,-12.9961292918786,9.85989222049956
22,3.90094293612033,-13.5959139683799,9.69497103225953
22.2,4.64966306696855,-14.1801565541227,9.53049348715416
22.4,5.46888720147409,-14.7655824759683,9.29669527449425
22.6,6.4098059916121,-15.3488395747986,8.93903358318647
22.8,7.33489164882746,-15.9051762220929,8.57028457326543
23,8.24077797260357,-16.4379606112657,8.19718263866214
23.2,9.12289321072021,-16.8535889638394,7.73069575311924
23.4,9.91493058836537,-17.187253532171,7.27232294380564
23.6,10.7032447115825,-17.480393784789,6.77714907320649
23.8,11.5757715347505,-17.7104466241688,6.13467508941824
24,12.3954618030285,-17.8369600168209,5.44149821379242
24.2,13.1311411303323,-17.8651540063269,4.73401287599461
24.4,13.8950643350146,-17.8192351950397,3.92417086002511
24.6,14.6184759681391,-17.711740510833,3.09326454269389
24.8,15.3717145436758,-17.6861204324115,2.31440588873574
25,16.2109472116863,-17.6645619560962,1.45361474440989
25.2,16.9019107290642,-17.473882977342,0.571972248277813
25.4,17.4253531709933,-17.1630940928152,-0.262259078178083
25.6,17.9115438677413,-16.7129539702348,-1.19858989750648
25.8,18.3792223114367,-16.1688832533205,-2.21033905811616
26,18.9083835134006,-15.7197253912881,-3.18865812211252
26.2,19.2849284982542,-15.1337861194341,-4.15114237882015
26.4,19.3896224472901,-14.4641416755779,-4.92548077171216
26.6,19.5931508286491,-13.8548967977535,-5.73825403089553
26.7999999999999,19.9247025875935,-13.2017939155838,-6.72290867200968
26.9999999999999,20.2299243013045,-12.6536211330649,-7.57630316823954
27.1999999999999,20.2600771767574,-11.9921778613718,-8.26789931538563
27.3999999999999,20.1219845594405,-11.3124876571613,-8.80949690227918
27.5999999999999,20.0638826707005,-10.4727750496026,-9.59110762109788
27.7999999999999,19.9172275687699,-9.67601678157272,-10.2412107871972
27.9999999999999,19.5956423346946,-8.79352963182713,-10.8021127028674
28.1999999999999,19.1973663054439,-7.95605725713042,-11.2413090483135
28.3999999999999,19.0766838233454,-7.12994442031074,-11.9467394030347
28.5999999999999,18.8926541047875,-6.35035245534943,-12.542301649438
28.7999999999999,18.512686511334,-5.64507838099249,-12.8676081303415
28.9999999999999,17.9489549435052,-4.91738876932604,-13.0315661741792
29.1999999999999,17.5496690525273,-4.09515334441597,-13.4545157081113
29.3999999999999,17.0082751623053,-3.30016568361761,-13.7081094786877
29.5999999999999,16.3744999367702,-2.60229496756037,-13.7722049692098
29.7999999999999,15.8342416124746,-1.90104479435316,-13.9331968181214
29.9999999999999,15.4914595655461,-1.13925394331153,-14.3522056222346
30.1999999999999,15.029833153648,-0.596694571611492,-14.4331385820365
30.3999999999999,14.4568086444545,-0.196931302098479,-14.259877342356
30.5999999999999,13.908698723334,0.261240226645533,-14.1699389499795
30.7999999999999,13.2362368105845,0.89858539418939,-14.1348222047739
30.9999999999999,12.5821143392134,1.29912059198846,-13.8812349312019
31.1999999999999,12.0389630228659,1.72853161732223,-13.7674946401881
31.3999999999999,11.607062369542,2.26117514939198,-13.8682375189339
31.5999999999999,11.0700035989571,2.66032991036429,-13.7303335093214
31.7999999999999,10.7277297975459,2.76275620570097,-13.4904860032469
31.9999999999999,10.2408662942373,3.02396236470264,-13.2648286589399
32.1999999999999,9.5260024670638,3.52639018219695,-13.0523926492607
32.3999999999999,9.03533057224525,3.70862357974981,-12.7439541519951
32.5999999999999,8.61685343964545,3.95777148371223,-12.5746249233577
32.7999999999999,8.1049380915634,4.41733170613602,-12.5222697976994
32.9999999999999,7.64074608156734,4.74204737134468,-12.382793452912
33.1999999999999,7.43135478161128,4.7373401726985,-12.1686949543098
33.3999999999999,6.93673200878213,4.99877209984783,-11.93550410863
33.5999999999999,6.3409732907401,5.36644460106279,-11.7074178918029
33.7999999999999,6.04357952184034,5.41131245734392,-11.4548919791843
33.9999999999999,5.69166751282698,5.53830399855624,-11.2299715113832
34.1999999999999,5.12886967371109,5.847913306748,-10.9767829804591
34.3999999999999,4.73123736729439,6.16449890183321,-10.8957362691276
34.5999999999999,4.56376424465428,6.13287601429184,-10.6966402589461
34.7999999999999,4.03861815012543,6.26681716653983,-10.3054353166653
34.9999999999999,3.40948920547739,6.47931356858927,-9.88880277406666
35.1999999999999,3.08575403512564,6.60891052630072,-9.69466456142636
35.3999999999999,2.82040991922222,6.58235709354616,-9.40276701276838
35.5999999999999,2.19210026143751,6.75597633281874,-8.94807659425624
35.7999999999999,1.59013478847203,6.94862766621106,-8.53876245468309
35.9999999999999,1.23344946556274,7.10131630202656,-8.3347657675893
36.1999999999999,0.887782253435649,7.04014567101062,-7.92792792444627
36.3999999999999,0.313494334681934,7.0519946658451,-7.36548900052704
36.5999999999999,-0.204417081251754,7.10167833411581,-6.89726125286405
36.7999999999999,-0.456529305058741,7.07305022406303,-6.61652091900429
36.9999999999999,-0.72917956981272,6.90212886800419,-6.17294929819147
37.1999999999999,-1.15338361643268,6.77457820054416,-5.62119458411148
37.3999999999999,-1.63333084790038,6.75111282334334,-5.11778197544296
37.5999999999999,-1.90475369859364,6.66127877093887,-4.75652507234523
37.7999999999999,-2.12295210519985,6.43380499884075,-4.3108528936409
37.9999999999999,-2.42808777894915,6.0878096786162,-3.65972189966704
38.1999999999999,-2.77382542487628,5.87440453362507,-3.10057910874878
38.3999999999999,-3.00389599667376,5.69130810077078,-2.68741210409702
38.5999999999999,-3.07653602391961,5.3620409908581,-2.28550496693849
38.7999999999999,-3.18251442634257,4.92354487322554,-1.74103044688297
38.9999999999999,-3.35240539546068,4.49586281875268,-1.143457423292
39.1999999999999,-3.5176158029845,4.19824346452611,-0.680627661541608
39.3999999999999,-3.57310009532044,3.8821409140044,-0.309040818683956
39.5999999999999,-3.49878136715252,3.40623814315997,0.0925432239925499
39.7999999999999,-3.45294763874366,2.87194230582178,0.581005332921875
39.9999999999999,-3.47639439366205,2.41371904764458,1.06267534601747
40.1999999999999,-3.44079859042079,2.05107890520921,1.38971968521158
40.3999999999999,-3.28638565290677,1.65846849510983,1.62791715779693
40.5999999999999,-3.04098857442116,1.13472537870308,1.90626319571807
40.7999999999999,-2.82018478118149,0.58009780939256,2.24008697178893
40.9999999999999,-2.6694804143867,0.114747932600363,2.55473248178634
41.1999999999999,-2.49495033048437,-0.273970551043043,2.76892088152741
41.3999999999999,-2.19887858956031,-0.67843619579848,2.87731478535879
41.5999999999999,-1.82326828942283,-1.17740527597699,3.00067356539983
41.7999999999999,-1.46620076605551,-1.72603132732197,3.19223209337748
41.9999999999999,-1.18144462191895,-2.17481119655072,3.35625581846967
42.1999999999999,-0.896706573850581,-2.49709782732002,3.3938044011706
42.3999999999999,-0.488583850769786,-2.84537954741469,3.33396339818448
42.5999999999999,-0.00125187153669498,-3.2668065619581,3.2680584334948
42.7999999999999,0.426215241390041,-3.69829966455299,3.27208442316295
42.9999999999999,0.770057721092013,-4.05238899383612,3.28233127274411
43.1999999999998,1.09849039656084,-4.27384970287822,3.17535930631737
43.3999999999998,1.49729878664697,-4.47834696006481,2.98104817341784
43.5999999999998,2.00951066734277,-4.77186179564821,2.76235112830543
43.7999999999998,2.48051339415284,-5.0889642086001,2.60845081444725
43.9999999999998,2.8193756908455,-5.33113440763519,2.51175871678968
44.1999999999998,3.1511072039924,-5.41424157173591,2.26313436774351
44.3999999999998,3.58451209095829,-5.4823923262571,1.89788023529881
44.5999999999998,4.08998043854754,-5.63254244844473,1.54256200989719
44.7999999999998,4.52960831026181,-5.77561586786854,1.24600755760673
44.9999999999998,4.77647679791462,-5.78205526064732,1.00557846273271
45.1999999999998,5.02563143098084,-5.69855247060932,0.672921039628479
45.3999999999998,5.37795583621641,-5.56786451136652,0.189908675150104
45.5999999999998,5.74596944335157,-5.51896276609325,-0.227006677258324
45.7999999999998,6.06786566166197,-5.54803358112453,-0.519832080537436
45.9999999999998,6.2334707198704,-5.45458564017902,-0.778885079691381
46.1999999999998,6.43626542384703,-5.26073990698605,-1.17552551686098
46.3999999999998,6.75574634785298,-5.06064208830422,-1.69510425954876
46.5999999999998,6.99284851865764,-4.94438605537326,-2.04846246328438
46.7999999999998,7.099659888738,-4.84965454130673,-2.25000534743127
46.9999999999998,7.06829421176311,-4.58268835903134,-2.48560585273177
47.1999999999998,7.13072330088145,-4.26537052577849,-2.86535277510296
47.3999999999998,7.29512974250041,-3.97573662159433,-3.31939312090608
47.5999999999998,7.38981488276544,-3.83176993682231,-3.55804494594312
47.7999999999998,7.36265848014648,-3.64052998096494,-3.72212849918154
47.9999999999998,7.28244539649045,-3.23203142913315,-4.0504139673573
48.1999999999998,7.3376008937177,-2.86389295529819,-4.47370793841952
48.3999999999998,7.37053206368255,-2.6074925822041,-4.76303948147845
48.5999999999998,7.22821569055144,-2.42916093143501,-4.79905475911644
48.7999999999998,6.98372108477073,-2.04831131681216,-4.93540976795857
48.9999999999998,6.80211701553049,-1.60653775430907,-5.19557926122142
49.1999999999998,6.80150918870324,-1.33020632973552,-5.47130285896772
49.3999999999998,6.72759871335631,-1.19162686061718,-5.53597185273913
49.5999999999998,6.5063982073281,-0.905323907622437,-5.60107429970567
49.7999999999998,6.28223595265569,-0.44787075380446,-5.83436519885123
49.9999999999998,6.24403545908535,-0.193932238531105,-6.05010322055425
50.1999999999998,6.17927319531723,-0.0965820137565248,-6.08269118156071
50.3999999999998,5.93566576252163,0.0493651337405658,-5.98503089626219
50.5999999999998,5.63301542155205,0.443072045155672,-6.07608746670772
50.7999999999998,5.46835093868226,0.770425851008389,-6.23877678969064
50.9999999999998,5.43425939288787,0.877670034358036,-6.31192942724591
51.1999999999998,5.14838991424901,1.02560554544809,-6.1739954596971
51.3999999999998,4.81547913033175,1.39214629830547,-6.20762542863721
51.5999999999998,4.61060168233022,1.71320904959115,-6.32381073192136
51.7999999999998,4.55522836659815,1.77526313756065,-6.3304915041588
51.9999999999998,4.30511909282567,1.84285724745117,-6.14797634027684
52.1999999999998,3.93355366587482,2.09215970185395,-6.02571336772877
52.3999999999998,3.67071453530214,2.44703254099607,-6.1177470762982
52.5999999999998,3.60317041737119,2.55151175162557,-6.15468216899676
52.7999999999998,3.38207754818731,2.59330581615404,-5.97538336434135
52.9999999999998,2.99327614799073,2.82699028967929,-5.82026643767001
53.1999999999998,2.72404610634689,3.15215893313595,-5.87620503948284
53.3999999999998,2.61474239155408,3.2895008046422,-5.90424319619628
53.5999999999998,2.47131906004934,3.30416093954488,-5.77547999959422
53.7999999999998,2.07590057456823,3.46727851173849,-5.54317908630672
53.9999999999998,1.71503737920833,3.75271410095575,-5.46775148016408
54.1999999999998,1.54684618101677,3.94178144877597,-5.48862762979274
54.3999999999998,1.40457477857009,3.87789696401656,-5.28247174258666
54.5999999999998,1.05182823601887,3.93543238355154,-4.98726061957042
54.7999999999998,0.655823239419914,4.12385709842988,-4.7796803378498
54.9999999999998,0.448035805332146,4.27777263036341,-4.72580843569555
55.1999999999998,0.310823846077126,4.26068198059676,-4.57150582667389
55.3999999999998,0.0594452765546542,4.20150431748091,-4.26094959403557
55.5999999999998,-0.368087774665689,4.30653951867958,-3.93845174401389
55.7999999999998,-0.683356473750135,4.45417638199069,-3.77081990824056
55.9999999999998,-0.81717864184544,4.45049022258927,-3.63331158074383
56.1999999999998,-1.00448351010055,4.30656470432286,-3.30208119422231
56.3999999999998,-1.33371065384022,4.23926574656886,-2.90555509272864
56.5999999999998,-1.68931250916281,4.29016296154923,-2.60085045238641
56.7999999999998,-1.87483765247341,4.29180458904931,-2.41696693657591
56.9999999999998,-1.98493098100189,4.16621373729709,-2.18128275629519
57.1999999999998,-2.194535812104,3.9560945549472,-1.7615587428432
57.3999999999998,-2.49808821094227,3.83963877731176,-1.34155056636948
57.5999999999998,-2.74569367105592,3.81178559885681,-1.0660919278009
57.7999999999998,-2.79127101026912,3.6458864476689,-0.85461543739978
57.9999999999998,-2.81375541962958,3.35343905912149,-0.539683639491901
58.1999999999998,-2.9455522548693,3.04149326138202,-0.095941006512716
58.3999999999998,-3.11659784230228,2.83577577438813,0.280822067914158
58.5999999999998,-3.20722988645405,2.68960974913317,0.517620137320882
58.7999999999998,-3.16510694981046,2.4279813691286,0.737125580681858
58.9999999999998,-3.1112906364743,2.05478372978687,1.05650690668743
59.1999999999998,-3.16258330370461,1.69334065229562,1.469242651409
59.3999999999998,-3.23038279705009,1.43508212579679,1.79530067125329
59.5999999999998,-3.18047765736451,1.21785874152053,1.96261891584398
59.7999999999997,-3.01021265348484,0.875456211572658,2.13475644191218
59.9999999999997,-2.83727627495917,0.430061734115403,2.40721454084377
60.1999999999997,-2.75253979321503,0.0474416700886235,2.70509812312641
60.3999999999997,-2.69245856154808,-0.223616413492651,2.91607497504073
60.5999999999997,-2.51922710364095,-0.472242789082376,2.99146989272333
60.7999999999997,-2.25372754165667,-0.814845023844282,3.06857256550095
60.9999999999997,-1.98802349767859,-1.2598003134091,3.24782381108769
61.1999999999997,-1.80950932284344,-1.6297985045107,3.43930782735414
61.3999999999997,-1.66036300676939,-1.8659468469009,3.52630985367029
61.5999999999997,-1.36943006146774,-2.10241466275389,3.47184472422162
61.7999999999997,-0.983111692281836,-2.441721170836,3.42483286311784
61.9999999999997,-0.625210908419088,-2.84313604422466,3.46834695264375
